TimeStramp,ECG,SpO2,Respiration
10:11:13,-1185480.705,0.0,0.0
10:11:13,-1187446.785,0.0,0.0
10:11:13,-1192624.129,0.0,0.0
10:11:13,-1183973.377,0.0,0.0
10:11:13,-1185087.488,0.0,0.0
10:11:13,-1189740.544,0.0,0.0
10:11:13,-1182662.657,0.0,0.0
10:11:13,-1184366.593,0.0,0.0
10:11:13,-1189216.257,0.0,0.0
10:11:13,-1184366.592,0.0,0.0
10:11:13,-1185218.56,0.0,0.0
10:11:13,-1190461.441,0.0,0.0
10:11:13,-1184628.737,0.0,0.0
10:11:13,-1187119.107,0.0,0.0
10:11:13,-1190854.659,0.0,0.0
10:11:13,-1187381.253,0.0,0.0
10:11:13,-1186332.677,0.0,0.0
10:11:13,-1191444.485,0.0,0.0
10:11:14,-1187119.109,0.0,0.0
10:11:14,-1186332.675,0.0,0.0
10:11:14,-1191837.697,0.0,0.0
10:11:14,-1183842.304,0.0,0.0
10:11:14,-1185939.455,0.0,0.0
10:11:14,-1191837.696,0.0,0.0
10:11:14,-1185021.952,0.0,0.0
10:11:14,-1186398.207,0.0,0.0
10:11:14,-1192230.912,0.0,0.0
10:11:14,-1185677.312,0.0,0.0
10:11:14,-1187905.537,0.0,0.0
10:11:14,-1195180.032,0.0,0.0
10:11:14,-1185939.457,0.0,0.0
10:11:14,-1187512.321,0.0,0.0
10:11:14,-1192624.126,0.0,0.0
10:11:14,-1186463.741,0.0,0.0
10:11:14,-1187250.18,0.0,0.0
10:11:14,-1192362.005,0.0,0.0
10:11:14,-1184170.019,0.0,0.0
10:11:14,-1186988.063,0.0,0.0
10:11:14,-1190592.527,0.0,0.0
10:11:14,-1185021.953,0.0,0.0
10:11:14,-1189478.397,0.0,0.0
10:11:14,-1192230.912,0.0,0.0
10:11:14,-1185284.097,0.0,0.0
10:11:14,-1185546.24,0.0,0.0
10:11:14,-1190920.192,0.0,0.0
10:11:14,-1183318.017,0.0,0.0
10:11:14,-1185611.777,0.0,0.0
10:11:14,-1190985.729,0.0,0.0
10:11:14,-1184104.449,0.0,0.0
10:11:14,-1183645.697,0.0,0.0
10:11:14,-1188429.825,0.0,0.0
10:11:14,-1182334.977,0.0,0.0
10:11:14,-1186398.208,0.0,0.0
10:11:14,-1188954.113,0.0,0.0
10:11:14,-1181941.761,0.0,0.0
10:11:14,-1185218.56,0.0,0.0
10:11:14,-1191641.089,0.0,0.0
10:11:14,-1183645.698,0.0,0.0
10:11:14,-1179844.612,0.0,0.0
10:11:14,-1185742.852,0.0,0.0
10:11:14,-1179058.181,0.0,0.0
10:11:14,-1181155.335,0.0,0.0
10:11:14,-1187446.792,0.0,0.0
10:11:14,-1177354.249,0.0,0.0
10:11:14,-1180172.297,0.0,0.0
10:11:14,-1183580.17,0.0,0.0
10:11:14,-1177026.57,0.0,0.0
10:11:14,-1180434.441,0.0,0.0
10:11:14,-1181089.801,0.0,0.0
10:11:14,-1176109.064,0.0,0.0
10:11:14,-1178533.894,0.0,0.0
10:11:14,-1178861.573,0.0,0.0
10:11:14,-1172242.435,0.0,0.0
10:11:14,-1176436.738,0.0,0.0
10:11:14,-1179189.248,0.0,0.0
10:11:14,-1169620.99,0.0,0.0
10:11:14,-1173553.15,0.0,0.0
10:11:14,-1176240.125,0.0,0.0
10:11:14,-1168637.949,0.0,0.0
10:11:14,-1170931.71,0.0,0.0
10:11:14,-1169948.67,0.0,0.0
10:11:14,-1163722.751,0.0,0.0
10:11:14,-1167392.766,0.0,0.0
10:11:14,-1168113.663,0.0,0.0
10:11:14,-1162149.887,0.0,0.0
10:11:14,-1167327.232,0.0,0.0
10:11:14,-1167130.624,0.0,0.0
10:11:14,-1158873.088,0.0,0.0
10:11:14,-1163198.465,0.0,0.0
10:11:14,-1162608.64,0.0,0.0
10:11:14,-1156317.184,0.0,0.0
10:11:14,-1158742.017,0.0,0.0
10:11:14,-1159921.665,0.0,0.0
10:11:14,-1152188.417,0.0,0.0
10:11:14,-1158283.265,0.0,0.0
10:11:14,-1157627.905,0.0,0.0
10:11:14,-1149698.049,0.0,0.0
10:11:14,-1155596.289,0.0,0.0
10:11:14,-1155530.753,0.0,0.0
10:11:14,-1148649.472,0.0,0.0
10:11:14,-1153236.992,0.0,0.0
10:11:14,-1155530.753,0.0,0.0
10:11:14,-1149108.225,0.0,0.0
10:11:14,-1150812.16,0.0,0.0
10:11:14,-1150222.336,0.0,0.0
10:11:14,-1145110.529,0.0,0.0
10:11:14,-1147928.577,0.0,0.0
10:11:14,-1146814.467,0.0,0.0
10:11:14,-1140260.868,0.0,0.0
10:11:14,-1146945.54,0.0,0.0
10:11:14,-1145634.822,0.0,0.0
10:11:14,-1138098.182,0.0,0.0
10:11:14,-1145176.068,0.0,0.0
10:11:14,-1143406.595,0.0,0.0
10:11:14,-1137180.673,0.0,0.0
10:11:14,-1142947.84,0.0,0.0
10:11:14,-1141964.799,0.0,0.0
10:11:14,-1135542.271,0.0,0.0
10:11:14,-1141964.8,0.0,0.0
10:11:14,-1141506.047,0.0,0.0
10:11:14,-1134952.448,0.0,0.0
10:11:14,-1141243.904,0.0,0.0
10:11:14,-1141243.905,0.0,0.0
10:11:14,-1135935.488,0.0,0.0
10:11:14,-1139671.041,0.0,0.0
10:11:14,-1138688.0,0.0,0.0
10:11:14,-1133576.19,0.0,0.0
10:11:14,-1139671.038,0.0,0.0
10:11:14,-1138294.792,0.0,0.0
10:11:14,-1133183.003,0.0,0.0
10:11:14,-1138556.965,0.0,0.0
10:11:14,-1136132.124,0.0,0.0
10:11:14,-1132134.409,0.0,0.0
10:11:14,-1138491.39,0.0,0.0
10:11:14,-1140064.254,0.0,0.0
10:11:14,-1133772.8,0.0,0.0
10:11:14,-1139212.288,0.0,0.0
10:11:14,-1135869.953,0.0,0.0
10:11:14,-1132527.617,0.0,0.0
10:11:14,-1138688.0,0.0,0.0
10:11:14,-1136197.632,0.0,0.0
10:11:14,-1131544.577,0.0,0.0
10:11:14,-1137770.497,0.0,0.0
10:11:14,-1132593.153,0.0,0.0
10:11:15,-1128988.672,0.0,0.0
10:11:15,-1139474.432,0.0,0.0
10:11:15,-1137836.033,0.0,0.0
10:11:15,-1132134.4,0.0,0.0
10:11:15,-1138884.608,0.0,0.0
10:11:15,-1135607.809,0.0,0.0
10:11:15,-1131413.505,0.0,0.0
10:11:15,-1137442.819,0.0,0.0
10:11:15,-1135673.348,0.0,0.0
10:11:15,-1130561.54,0.0,0.0
10:11:15,-1135542.278,0.0,0.0
10:11:15,-1134755.847,0.0,0.0
10:11:15,-1130496.008,0.0,0.0
10:11:15,-1136984.072,0.0,0.0
10:11:15,-1131413.513,0.0,0.0
10:11:15,-1132331.018,0.0,0.0
10:11:15,-1139146.761,0.0,0.0
10:11:15,-1133051.913,0.0,0.0
10:11:15,-1131479.048,0.0,0.0
10:11:15,-1139736.583,0.0,0.0
10:11:15,-1134690.309,0.0,0.0
10:11:15,-1131872.26,0.0,0.0
10:11:15,-1136328.706,0.0,0.0
10:11:15,-1133248.513,0.0,0.0
10:11:15,-1131282.432,0.0,0.0
10:11:15,-1135935.486,0.0,0.0
10:11:15,-1133576.19,0.0,0.0
10:11:15,-1131544.573,0.0,0.0
10:11:15,-1138229.246,0.0,0.0
10:11:15,-1133445.118,0.0,0.0
10:11:15,-1131479.039,0.0,0.0
10:11:15,-1137246.206,0.0,0.0
10:11:15,-1133314.047,0.0,0.0
10:11:15,-1134297.087,0.0,0.0
10:11:15,-1138819.072,0.0,0.0
10:11:15,-1133379.583,0.0,0.0
10:11:15,-1132462.08,0.0,0.0
10:11:15,-1139539.968,0.0,0.0
10:11:15,-1133772.8,0.0,0.0
10:11:15,-1132855.297,0.0,0.0
10:11:15,-1140981.761,0.0,0.0
10:11:15,-1133641.728,0.0,0.0
10:11:15,-1132134.401,0.0,0.0
10:11:15,-1136066.561,0.0,0.0
10:11:15,-1132396.545,0.0,0.0
10:11:15,-1132593.153,0.0,0.0
10:11:15,-1139015.681,0.0,0.0
10:11:15,-1132986.369,0.0,0.0
10:11:15,-1133117.441,0.0,0.0
10:11:15,-1138622.465,0.0,0.0
10:11:15,-1131413.505,0.0,0.0
10:11:15,-1133903.872,0.0,0.0
10:11:15,-1139474.433,0.0,0.0
10:11:15,-1133641.729,0.0,0.0
10:11:15,-1133510.657,0.0,0.0
10:11:15,-1139081.217,0.0,0.0
10:11:15,-1134821.378,0.0,0.0
10:11:15,-1135869.955,0.0,0.0
10:11:15,-1140260.868,0.0,0.0
10:11:15,-1135083.525,0.0,0.0
10:11:15,-1136721.925,0.0,0.0
10:11:15,-1139998.725,0.0,0.0
10:11:15,-1133445.124,0.0,0.0
10:11:15,-1135935.489,0.0,0.0
10:11:15,-1140850.688,0.0,0.0
10:11:15,-1136263.167,0.0,0.0
10:11:15,-1136590.846,0.0,0.0
10:11:15,-1142489.086,0.0,0.0
10:11:15,-1135673.343,0.0,0.0
10:11:15,-1137508.351,0.0,0.0
10:11:15,-1141309.439,0.0,0.0
10:11:15,-1133445.12,0.0,0.0
10:11:15,-1137049.6,0.0,0.0
10:11:15,-1140588.543,0.0,0.0
10:11:15,-1135083.52,0.0,0.0
10:11:15,-1138163.711,0.0,0.0
10:11:15,-1142161.402,0.0,0.0
10:11:15,-1136066.559,0.0,0.0
10:11:15,-1139736.587,0.0,0.0
10:11:15,-1142620.179,0.0,0.0
10:11:15,-1136328.722,0.0,0.0
10:11:15,-1140326.414,0.0,0.0
10:11:15,-1143472.132,0.0,0.0
10:11:15,-1136656.379,0.0,0.0
10:11:15,-1139736.571,0.0,0.0
10:11:15,-1144127.486,0.0,0.0
10:11:15,-1135214.59,0.0,0.0
10:11:15,-1139736.572,0.0,0.0
10:11:15,-1145438.205,0.0,0.0
10:11:15,-1138687.997,0.0,0.0
10:11:15,-1142489.085,0.0,0.0
10:11:15,-1144455.165,0.0,0.0
10:11:15,-1136263.165,0.0,0.0
10:11:15,-1142751.228,0.0,0.0
10:11:15,-1145110.525,0.0,0.0
10:11:15,-1138884.605,0.0,0.0
10:11:15,-1143799.804,0.0,0.0
10:11:15,-1144913.916,0.0,0.0
10:11:15,-1139474.429,0.0,0.0
10:11:15,-1143799.804,0.0,0.0
10:11:15,-1145044.989,0.0,0.0
10:11:15,-1137704.958,0.0,0.0
10:11:15,-1144717.31,0.0,0.0
10:11:15,-1146486.783,0.0,0.0
10:11:15,-1138884.608,0.0,0.0
10:11:15,-1144913.921,0.0,0.0
10:11:15,-1145700.353,0.0,0.0
10:11:15,-1139408.897,0.0,0.0
10:11:15,-1145634.818,0.0,0.0
10:11:15,-1145438.21,0.0,0.0
10:11:15,-1141637.121,0.0,0.0
10:11:15,-1146355.713,0.0,0.0
10:11:15,-1147207.681,0.0,0.0
10:11:15,-1141571.585,0.0,0.0
10:11:15,-1146617.856,0.0,0.0
10:11:15,-1147731.966,0.0,0.0
10:11:15,-1141047.293,0.0,0.0
10:11:15,-1147076.605,0.0,0.0
10:11:15,-1147469.82,0.0,0.0
10:11:15,-1143472.124,0.0,0.0
10:11:15,-1151074.3,0.0,0.0
10:11:15,-1151991.803,0.0,0.0
10:11:15,-1144455.164,0.0,0.0
10:11:15,-1149501.436,0.0,0.0
10:11:16,-1148977.148,0.0,0.0
10:11:16,-1143799.804,0.0,0.0
10:11:16,-1149960.189,0.0,0.0
10:11:16,-1148059.645,0.0,0.0
10:11:16,-1143930.877,0.0,0.0
10:11:16,-1151008.765,0.0,0.0
10:11:16,-1150681.086,0.0,0.0
10:11:16,-1146159.102,0.0,0.0
10:11:16,-1151729.662,0.0,0.0
10:11:16,-1153368.062,0.0,0.0
10:11:16,-1147142.142,0.0,0.0
10:11:16,-1153499.135,0.0,0.0
10:11:16,-1153630.206,0.0,0.0
10:11:16,-1146224.638,0.0,0.0
10:11:16,-1151860.735,0.0,0.0
10:11:16,-1150156.799,0.0,0.0
10:11:16,-1146879.999,0.0,0.0
10:11:16,-1153892.351,0.0,0.0
10:11:16,-1153630.206,0.0,0.0
10:11:16,-1149960.19,0.0,0.0
10:11:16,-1155661.822,0.0,0.0
10:11:16,-1153368.062,0.0,0.0
10:11:16,-1149042.686,0.0,0.0
10:11:16,-1156317.182,0.0,0.0
10:11:16,-1156513.791,0.0,0.0
10:11:16,-1152253.95,0.0,0.0
10:11:16,-1155858.431,0.0,0.0
10:11:16,-1155923.968,0.0,0.0
10:11:16,-1151991.808,0.0,0.0
10:11:16,-1159397.377,0.0,0.0
10:11:16,-1156055.042,0.0,0.0
10:11:16,-1153957.889,0.0,0.0
10:11:16,-1159200.768,0.0,0.0
10:11:16,-1154547.712,0.0,0.0
10:11:16,-1152516.095,0.0,0.0
10:11:16,-1158021.118,0.0,0.0
10:11:16,-1156055.038,0.0,0.0
10:11:16,-1155399.677,0.0,0.0
10:11:16,-1161101.309,0.0,0.0
10:11:16,-1157365.758,0.0,0.0
10:11:16,-1152450.558,0.0,0.0
10:11:16,-1162149.886,0.0,0.0
10:11:16,-1157693.438,0.0,0.0
10:11:16,-1155858.431,0.0,0.0
10:11:16,-1162739.71,0.0,0.0
10:11:16,-1158021.119,0.0,0.0
10:11:16,-1158479.871,0.0,0.0
10:11:16,-1163591.678,0.0,0.0
10:11:16,-1160118.28,0.0,0.0
10:11:16,-1157955.608,0.0,0.0
10:11:16,-1163788.314,0.0,0.0
10:11:16,-1160249.353,0.0,0.0
10:11:16,-1161822.206,0.0,0.0
10:11:16,-1165754.368,0.0,0.0
10:11:16,-1160511.489,0.0,0.0
10:11:16,-1161494.528,0.0,0.0
10:11:16,-1167720.449,0.0,0.0
10:11:16,-1164181.505,0.0,0.0
10:11:16,-1163132.929,0.0,0.0
10:11:16,-1169293.314,0.0,0.0
10:11:16,-1161363.458,0.0,0.0
10:11:16,-1162215.426,0.0,0.0
10:11:16,-1168637.954,0.0,0.0
10:11:16,-1162936.323,0.0,0.0
10:11:16,-1165754.37,0.0,0.0
10:11:16,-1172439.042,0.0,0.0
10:11:16,-1165950.978,0.0,0.0
10:11:16,-1165557.762,0.0,0.0
10:11:16,-1172897.795,0.0,0.0
10:11:16,-1166671.876,0.0,0.0
10:11:16,-1166147.588,0.0,0.0
10:11:16,-1173356.549,0.0,0.0
10:11:16,-1169227.782,0.0,0.0
10:11:16,-1170735.111,0.0,0.0
10:11:16,-1174994.952,0.0,0.0
10:11:16,-1169293.322,0.0,0.0
10:11:16,-1170866.185,0.0,0.0
10:11:16,-1176895.498,0.0,0.0
10:11:16,-1170604.043,0.0,0.0
10:11:16,-1173159.946,0.0,0.0
10:11:16,-1177354.25,0.0,0.0
10:11:16,-1171718.154,0.0,0.0
10:11:16,-1174798.345,0.0,0.0
10:11:16,-1179385.864,0.0,0.0
10:11:16,-1174863.879,0.0,0.0
10:11:16,-1178402.822,0.0,0.0
10:11:16,-1181548.548,0.0,0.0
10:11:16,-1173684.227,0.0,0.0
10:11:16,-1178140.674,0.0,0.0
10:11:16,-1182466.049,0.0,0.0
10:11:16,-1177157.632,0.0,0.0
10:11:16,-1179713.537,0.0,0.0
10:11:16,-1182924.801,0.0,0.0
10:11:16,-1175912.449,0.0,0.0
10:11:16,-1182138.369,0.0,0.0
10:11:16,-1184038.912,0.0,0.0
10:11:16,-1176829.953,0.0,0.0
10:11:16,-1181941.761,0.0,0.0
10:11:16,-1185349.633,0.0,0.0
10:11:16,-1178992.641,0.0,0.0
10:11:16,-1182007.297,0.0,0.0
10:11:16,-1185939.457,0.0,0.0
10:11:16,-1180893.185,0.0,0.0
10:11:16,-1187053.57,0.0,0.0
10:11:16,-1188757.506,0.0,0.0
10:11:16,-1180893.185,0.0,0.0
10:11:16,-1188298.753,0.0,0.0
10:11:16,-1187774.465,0.0,0.0
10:11:16,-1180893.185,0.0,0.0
10:11:16,-1187905.537,0.0,0.0
10:11:16,-1188888.577,0.0,0.0
10:11:16,-1182531.585,0.0,0.0
10:11:16,-1188495.361,0.0,0.0
10:11:16,-1189543.937,0.0,0.0
10:11:16,-1184759.809,0.0,0.0
10:11:16,-1189543.937,0.0,0.0
10:11:16,-1190002.69,0.0,0.0
10:11:16,-1186004.993,0.0,0.0
10:11:16,-1190854.657,0.0,0.0
10:11:16,-1188560.897,0.0,0.0
10:11:16,-1182924.803,0.0,0.0
10:11:16,-1188298.756,0.0,0.0
10:11:16,-1189281.796,0.0,0.0
10:11:16,-1183449.093,0.0,0.0
10:11:16,-1190526.981,0.0,0.0
10:11:16,-1190658.053,0.0,0.0
10:11:17,-1185021.955,0.0,0.0
10:11:17,-1191182.337,0.0,0.0
10:11:17,-1189150.72,0.0,0.0
10:11:17,-1183776.767,0.0,0.0
10:11:17,-1191575.551,0.0,0.0
10:11:17,-1190330.368,0.0,0.0
10:11:17,-1183711.231,0.0,0.0
10:11:17,-1188364.288,0.0,0.0
10:11:17,-1190068.224,0.0,0.0
10:11:17,-1185480.705,0.0,0.0
10:11:17,-1192427.52,0.0,0.0
10:11:17,-1191051.265,0.0,0.0
10:11:17,-1183711.233,0.0,0.0
10:11:17,-1192165.374,0.0,0.0
10:11:17,-1191116.798,0.0,0.0
10:11:17,-1184497.671,0.0,0.0
10:11:17,-1190199.318,0.0,0.0
10:11:17,-1188036.638,0.0,0.0
10:11:17,-1182072.857,0.0,0.0
10:11:17,-1189478.413,0.0,0.0
10:11:17,-1188757.505,0.0,0.0
10:11:17,-1186267.134,0.0,0.0
10:11:17,-1191772.16,0.0,0.0
10:11:17,-1189543.937,0.0,0.0
10:11:17,-1184759.808,0.0,0.0
10:11:17,-1191247.873,0.0,0.0
10:11:17,-1187905.537,0.0,0.0
10:11:17,-1185808.385,0.0,0.0
10:11:17,-1191575.553,0.0,0.0
10:11:17,-1188626.433,0.0,0.0
10:11:17,-1182466.049,0.0,0.0
10:11:17,-1189871.617,0.0,0.0
10:11:17,-1188298.753,0.0,0.0
10:11:17,-1185480.705,0.0,0.0
10:11:17,-1188823.041,0.0,0.0
10:11:17,-1185284.097,0.0,0.0
10:11:17,-1181679.617,0.0,0.0
10:11:17,-1188691.969,0.0,0.0
10:11:17,-1184301.058,0.0,0.0
10:11:17,-1180762.116,0.0,0.0
10:11:17,-1186791.428,0.0,0.0
10:11:17,-1183776.773,0.0,0.0
10:11:17,-1179254.791,0.0,0.0
10:11:17,-1183842.311,0.0,0.0
10:11:17,-1177681.929,0.0,0.0
10:11:17,-1176502.281,0.0,0.0
10:11:17,-1184497.674,0.0,0.0
10:11:17,-1178337.289,0.0,0.0
10:11:17,-1177092.105,0.0,0.0
10:11:17,-1184169.993,0.0,0.0
10:11:17,-1176961.031,0.0,0.0
10:11:17,-1174011.91,0.0,0.0
10:11:17,-1181483.012,0.0,0.0
10:11:17,-1177288.706,0.0,0.0
10:11:17,-1174077.441,0.0,0.0
10:11:17,-1178533.887,0.0,0.0
10:11:17,-1170341.886,0.0,0.0
10:11:17,-1169555.454,0.0,0.0
10:11:17,-1177812.989,0.0,0.0
10:11:17,-1171455.997,0.0,0.0
10:11:17,-1167589.374,0.0,0.0
10:11:17,-1172504.574,0.0,0.0
10:11:17,-1167065.087,0.0,0.0
10:11:17,-1164771.326,0.0,0.0
10:11:17,-1169293.311,0.0,0.0
10:11:17,-1161822.207,0.0,0.0
10:11:17,-1161625.6,0.0,0.0
10:11:17,-1168506.879,0.0,0.0
10:11:17,-1161101.311,0.0,0.0
10:11:17,-1159659.52,0.0,0.0
10:11:17,-1163264.0,0.0,0.0
10:11:17,-1158414.336,0.0,0.0
10:11:17,-1158086.657,0.0,0.0
10:11:17,-1163067.393,0.0,0.0
10:11:17,-1154351.105,0.0,0.0
10:11:17,-1154744.32,0.0,0.0
10:11:17,-1159135.232,0.0,0.0
10:11:17,-1150418.945,0.0,0.0
10:11:17,-1151139.841,0.0,0.0
10:11:17,-1155661.825,0.0,0.0
10:11:17,-1150550.016,0.0,0.0
10:11:17,-1150681.088,0.0,0.0
10:11:17,-1153105.921,0.0,0.0
10:11:17,-1146224.64,0.0,0.0
10:11:17,-1146028.032,0.0,0.0
10:11:17,-1151533.057,0.0,0.0
10:11:17,-1145831.425,0.0,0.0
10:11:17,-1145372.674,0.0,0.0
10:11:17,-1149763.587,0.0,0.0
10:11:17,-1140850.692,0.0,0.0
10:11:17,-1142816.773,0.0,0.0
10:11:17,-1144848.39,0.0,0.0
10:11:17,-1138884.613,0.0,0.0
10:11:17,-1140588.549,0.0,0.0
10:11:17,-1144586.243,0.0,0.0
10:11:17,-1140457.472,0.0,0.0
10:11:17,-1140391.936,0.0,0.0
10:11:17,-1142292.48,0.0,0.0
10:11:17,-1134231.551,0.0,0.0
10:11:17,-1139146.751,0.0,0.0
10:11:17,-1143209.984,0.0,0.0
10:11:17,-1135214.592,0.0,0.0
10:11:17,-1140457.473,0.0,0.0
10:11:17,-1143078.913,0.0,0.0
10:11:17,-1136525.312,0.0,0.0
10:11:17,-1139998.72,0.0,0.0
10:11:17,-1139015.68,0.0,0.0
10:11:17,-1132199.933,0.0,0.0
10:11:17,-1136066.559,0.0,0.0
10:11:17,-1138425.866,0.0,0.0
10:11:17,-1132527.645,0.0,0.0
10:11:17,-1137049.636,0.0,0.0
10:11:17,-1139671.065,0.0,0.0
10:11:17,-1133772.808,0.0,0.0
10:11:17,-1136328.702,0.0,0.0
10:11:17,-1137180.67,0.0,0.0
10:11:17,-1132003.327,0.0,0.0
10:11:17,-1135804.417,0.0,0.0
10:11:17,-1138294.785,0.0,0.0
10:11:17,-1131413.505,0.0,0.0
10:11:17,-1135411.2,0.0,0.0
10:11:17,-1135869.953,0.0,0.0
10:11:17,-1130758.145,0.0,0.0
10:11:17,-1135280.128,0.0,0.0
10:11:18,-1133117.44,0.0,0.0
10:11:18,-1128464.385,0.0,0.0
10:11:18,-1136721.921,0.0,0.0
10:11:18,-1137180.673,0.0,0.0
10:11:18,-1131151.36,0.0,0.0
10:11:18,-1136066.56,0.0,0.0
10:11:18,-1136197.633,0.0,0.0
10:11:18,-1128988.673,0.0,0.0
10:11:18,-1136459.778,0.0,0.0
10:11:18,-1137049.603,0.0,0.0
10:11:18,-1130627.077,0.0,0.0
10:11:18,-1136852.998,0.0,0.0
10:11:18,-1137180.68,0.0,0.0
10:11:18,-1131479.049,0.0,0.0
10:11:18,-1136525.321,0.0,0.0
10:11:18,-1134952.458,0.0,0.0
10:11:18,-1131610.122,0.0,0.0
10:11:18,-1136853.001,0.0,0.0
10:11:18,-1135869.961,0.0,0.0
10:11:18,-1131741.192,0.0,0.0
10:11:18,-1137836.039,0.0,0.0
10:11:18,-1135542.277,0.0,0.0
10:11:18,-1129644.036,0.0,0.0
10:11:18,-1136066.562,0.0,0.0
10:11:18,-1135673.345,0.0,0.0
10:11:18,-1132003.327,0.0,0.0
10:11:18,-1136197.63,0.0,0.0
10:11:18,-1132789.758,0.0,0.0
10:11:18,-1130299.39,0.0,0.0
10:11:18,-1137639.422,0.0,0.0
10:11:18,-1134559.231,0.0,0.0
10:11:18,-1130823.678,0.0,0.0
10:11:18,-1138163.71,0.0,0.0
10:11:18,-1133641.727,0.0,0.0
10:11:18,-1130102.783,0.0,0.0
10:11:18,-1136525.312,0.0,0.0
10:11:18,-1134886.911,0.0,0.0
10:11:18,-1131610.112,0.0,0.0
10:11:18,-1138556.928,0.0,0.0
10:11:18,-1134624.769,0.0,0.0
10:11:18,-1131610.112,0.0,0.0
10:11:18,-1139474.432,0.0,0.0
10:11:18,-1133182.977,0.0,0.0
10:11:18,-1130954.752,0.0,0.0
10:11:18,-1139277.824,0.0,0.0
10:11:18,-1134428.161,0.0,0.0
10:11:18,-1132855.296,0.0,0.0
10:11:18,-1139998.72,0.0,0.0
10:11:18,-1134428.161,0.0,0.0
10:11:18,-1132462.081,0.0,0.0
10:11:18,-1139802.112,0.0,0.0
10:11:18,-1135345.665,0.0,0.0
10:11:18,-1133117.441,0.0,0.0
10:11:18,-1138163.713,0.0,0.0
10:11:18,-1135149.056,0.0,0.0
10:11:18,-1132199.937,0.0,0.0
10:11:18,-1138360.321,0.0,0.0
10:11:18,-1135345.666,0.0,0.0
10:11:18,-1130037.251,0.0,0.0
10:11:18,-1136721.925,0.0,0.0
10:11:18,-1132855.301,0.0,0.0
10:11:18,-1132789.766,0.0,0.0
10:11:18,-1139933.189,0.0,0.0
10:11:18,-1137246.212,0.0,0.0
10:11:18,-1138098.178,0.0,0.0
10:11:18,-1142095.873,0.0,0.0
10:11:18,-1136001.024,0.0,0.0
10:11:18,-1135542.271,0.0,0.0
10:11:18,-1141112.832,0.0,0.0
10:11:18,-1135738.879,0.0,0.0
10:11:18,-1132658.688,0.0,0.0
10:11:18,-1139539.968,0.0,0.0
10:11:18,-1134886.913,0.0,0.0
10:11:18,-1135411.201,0.0,0.0
10:11:18,-1141178.369,0.0,0.0
10:11:18,-1136984.065,0.0,0.0
10:11:18,-1136918.527,0.0,0.0
10:11:18,-1143275.517,0.0,0.0
10:11:18,-1137049.6,0.0,0.0
10:11:18,-1137442.831,0.0,0.0
10:11:18,-1141375.009,0.0,0.0
10:11:18,-1137180.707,0.0,0.0
10:11:18,-1137115.157,0.0,0.0
10:11:18,-1144061.956,0.0,0.0
10:11:18,-1136721.918,0.0,0.0
10:11:18,-1136263.167,0.0,0.0
10:11:18,-1142620.16,0.0,0.0
10:11:18,-1136001.025,0.0,0.0
10:11:18,-1136721.92,0.0,0.0
10:11:18,-1142751.232,0.0,0.0
10:11:18,-1136984.065,0.0,0.0
10:11:18,-1137508.353,0.0,0.0
10:11:18,-1144389.632,0.0,0.0
10:11:18,-1137836.033,0.0,0.0
10:11:18,-1137442.817,0.0,0.0
10:11:18,-1145044.992,0.0,0.0
10:11:18,-1139605.505,0.0,0.0
10:11:18,-1141506.049,0.0,0.0
10:11:18,-1146683.392,0.0,0.0
10:11:18,-1137639.425,0.0,0.0
10:11:18,-1141112.833,0.0,0.0
10:11:18,-1144324.098,0.0,0.0
10:11:18,-1139015.682,0.0,0.0
10:11:18,-1141702.66,0.0,0.0
10:11:18,-1146421.253,0.0,0.0
10:11:18,-1139146.759,0.0,0.0
10:11:18,-1143013.384,0.0,0.0
10:11:18,-1146945.544,0.0,0.0
10:11:18,-1140260.873,0.0,0.0
10:11:18,-1143013.385,0.0,0.0
10:11:18,-1146945.546,0.0,0.0
10:11:18,-1142030.345,0.0,0.0
10:11:18,-1143603.209,0.0,0.0
10:11:18,-1146159.112,0.0,0.0
10:11:18,-1139736.582,0.0,0.0
10:11:18,-1143799.813,0.0,0.0
10:11:18,-1148649.475,0.0,0.0
10:11:18,-1142816.769,0.0,0.0
10:11:18,-1143734.272,0.0,0.0
10:11:18,-1148846.078,0.0,0.0
10:11:18,-1141702.654,0.0,0.0
10:11:18,-1145438.205,0.0,0.0
10:11:18,-1150418.942,0.0,0.0
10:11:18,-1143078.909,0.0,0.0
10:11:18,-1146748.926,0.0,0.0
10:11:19,-1148583.934,0.0,0.0
10:11:19,-1142816.767,0.0,0.0
10:11:19,-1149370.366,0.0,0.0
10:11:19,-1150484.479,0.0,0.0
10:11:19,-1144127.487,0.0,0.0
10:11:19,-1149632.511,0.0,0.0
10:11:19,-1153105.92,0.0,0.0
10:11:19,-1148321.792,0.0,0.0
10:11:19,-1149566.977,0.0,0.0
10:11:19,-1151270.912,0.0,0.0
10:11:19,-1145176.065,0.0,0.0
10:11:19,-1152581.633,0.0,0.0
10:11:19,-1154088.96,0.0,0.0
10:11:19,-1147469.825,0.0,0.0
10:11:19,-1152253.953,0.0,0.0
10:11:19,-1153695.745,0.0,0.0
10:11:19,-1146159.105,0.0,0.0
10:11:19,-1152516.097,0.0,0.0
10:11:19,-1152712.705,0.0,0.0
10:11:19,-1147011.072,0.0,0.0
10:11:19,-1153302.528,0.0,0.0
10:11:19,-1154809.857,0.0,0.0
10:11:19,-1149501.44,0.0,0.0
10:11:19,-1153302.528,0.0,0.0
10:11:19,-1154678.785,0.0,0.0
10:11:19,-1147207.681,0.0,0.0
10:11:19,-1153433.602,0.0,0.0
10:11:19,-1155989.508,0.0,0.0
10:11:19,-1147928.581,0.0,0.0
10:11:19,-1154809.861,0.0,0.0
10:11:19,-1156513.798,0.0,0.0
10:11:19,-1150287.877,0.0,0.0
10:11:19,-1157234.691,0.0,0.0
10:11:19,-1158086.658,0.0,0.0
10:11:19,-1151533.056,0.0,0.0
10:11:19,-1155989.503,0.0,0.0
10:11:19,-1157169.152,0.0,0.0
10:11:19,-1151336.448,0.0,0.0
10:11:19,-1157955.583,0.0,0.0
10:11:19,-1161035.776,0.0,0.0
10:11:19,-1154088.96,0.0,0.0
10:11:19,-1160511.488,0.0,0.0
10:11:19,-1158742.017,0.0,0.0
10:11:19,-1152843.777,0.0,0.0
10:11:19,-1162936.32,0.0,0.0
10:11:19,-1163395.071,0.0,0.0
10:11:19,-1158152.189,0.0,0.0
10:11:19,-1164050.435,0.0,0.0
10:11:19,-1161756.692,0.0,0.0
10:11:19,-1156644.899,0.0,0.0
10:11:19,-1163395.105,0.0,0.0
10:11:19,-1163067.408,0.0,0.0
10:11:19,-1158938.625,0.0,0.0
10:11:19,-1163591.677,0.0,0.0
10:11:19,-1161297.918,0.0,0.0
10:11:19,-1158873.088,0.0,0.0
10:11:19,-1167523.84,0.0,0.0
10:11:19,-1167065.088,0.0,0.0
10:11:19,-1162412.033,0.0,0.0
10:11:19,-1167458.305,0.0,0.0
10:11:19,-1167851.521,0.0,0.0
10:11:19,-1164312.576,0.0,0.0
10:11:19,-1169817.6,0.0,0.0
10:11:19,-1164640.257,0.0,0.0
10:11:19,-1162346.497,0.0,0.0
10:11:19,-1170341.889,0.0,0.0
10:11:19,-1168965.632,0.0,0.0
10:11:19,-1165492.224,0.0,0.0
10:11:19,-1170866.177,0.0,0.0
10:11:19,-1170538.497,0.0,0.0
10:11:19,-1164378.114,0.0,0.0
10:11:19,-1170669.571,0.0,0.0
10:11:19,-1171259.396,0.0,0.0
10:11:19,-1167196.166,0.0,0.0
10:11:19,-1174863.878,0.0,0.0
10:11:19,-1171062.791,0.0,0.0
10:11:19,-1167261.705,0.0,0.0
10:11:19,-1173487.625,0.0,0.0
10:11:19,-1173553.162,0.0,0.0
10:11:19,-1168900.105,0.0,0.0
10:11:19,-1174994.953,0.0,0.0
10:11:19,-1172504.584,0.0,0.0
10:11:19,-1168834.567,0.0,0.0
10:11:19,-1177092.102,0.0,0.0
10:11:19,-1176371.204,0.0,0.0
10:11:19,-1172373.507,0.0,0.0
10:11:19,-1180696.577,0.0,0.0
10:11:19,-1179779.072,0.0,0.0
10:11:19,-1176174.59,0.0,0.0
10:11:19,-1181876.222,0.0,0.0
10:11:19,-1178861.565,0.0,0.0
10:11:19,-1175257.086,0.0,0.0
10:11:19,-1183121.405,0.0,0.0
10:11:19,-1181483.006,0.0,0.0
10:11:19,-1180106.75,0.0,0.0
10:11:19,-1184956.415,0.0,0.0
10:11:19,-1180499.967,0.0,0.0
10:11:19,-1176567.807,0.0,0.0
10:11:19,-1184759.808,0.0,0.0
10:11:19,-1183252.479,0.0,0.0
10:11:19,-1180434.432,0.0,0.0
10:11:19,-1188364.288,0.0,0.0
10:11:19,-1183842.305,0.0,0.0
10:11:19,-1180958.72,0.0,0.0
10:11:19,-1186070.529,0.0,0.0
10:11:19,-1183645.697,0.0,0.0
10:11:19,-1182072.832,0.0,0.0
10:11:19,-1188626.433,0.0,0.0
10:11:19,-1182793.728,0.0,0.0
10:11:19,-1182728.192,0.0,0.0
10:11:19,-1190854.657,0.0,0.0
10:11:19,-1185087.488,0.0,0.0
10:11:19,-1183121.408,0.0,0.0
10:11:19,-1191772.161,0.0,0.0
10:11:19,-1185284.097,0.0,0.0
10:11:19,-1185480.705,0.0,0.0
10:11:19,-1190920.192,0.0,0.0
10:11:19,-1186004.992,0.0,0.0
10:11:19,-1184825.345,0.0,0.0
10:11:19,-1191051.265,0.0,0.0
10:11:19,-1186267.139,0.0,0.0
10:11:19,-1184366.596,0.0,0.0
10:11:19,-1190264.836,0.0,0.0
10:11:19,-1184169.99,0.0,0.0
10:11:19,-1184563.206,0.0,0.0
10:11:19,-1190789.124,0.0,0.0
10:11:20,-1185480.707,0.0,0.0
10:11:20,-1185939.457,0.0,0.0
10:11:20,-1191444.48,0.0,0.0
10:11:20,-1185742.847,0.0,0.0
10:11:20,-1187708.928,0.0,0.0
10:11:20,-1192886.272,0.0,0.0
10:11:20,-1184759.807,0.0,0.0
10:11:20,-1186988.032,0.0,0.0
10:11:20,-1193082.88,0.0,0.0
10:11:20,-1185677.313,0.0,0.0
10:11:20,-1186201.6,0.0,0.0
10:11:20,-1190723.585,0.0,0.0
10:11:20,-1184038.913,0.0,0.0
10:11:20,-1187905.534,0.0,0.0
10:11:20,-1193410.558,0.0,0.0
10:11:20,-1185546.247,0.0,0.0
10:11:20,-1185677.337,0.0,0.0
10:11:20,-1191182.372,0.0,0.0
10:11:20,-1185218.588,0.0,0.0
10:11:20,-1187250.187,0.0,0.0
10:11:20,-1190199.295,0.0,0.0
10:11:20,-1183449.086,0.0,0.0
10:11:20,-1184497.663,0.0,0.0
10:11:20,-1189937.153,0.0,0.0
10:11:20,-1183711.232,0.0,0.0
10:11:20,-1184432.128,0.0,0.0
10:11:20,-1191641.089,0.0,0.0
10:11:20,-1183907.84,0.0,0.0
10:11:20,-1184432.128,0.0,0.0
10:11:20,-1188888.577,0.0,0.0
10:11:20,-1182072.833,0.0,0.0
10:11:20,-1184301.057,0.0,0.0
10:11:20,-1188757.505,0.0,0.0
10:11:20,-1183645.697,0.0,0.0
10:11:20,-1186136.065,0.0,0.0
10:11:20,-1188626.432,0.0,0.0
10:11:20,-1181351.937,0.0,0.0
10:11:20,-1185349.633,0.0,0.0
10:11:20,-1189019.65,0.0,0.0
10:11:20,-1181679.619,0.0,0.0
10:11:20,-1182859.269,0.0,0.0
10:11:20,-1184366.598,0.0,0.0
10:11:20,-1177157.638,0.0,0.0
10:11:20,-1182203.912,0.0,0.0
10:11:20,-1184366.601,0.0,0.0
10:11:20,-1175322.633,0.0,0.0
10:11:20,-1180565.514,0.0,0.0
10:11:20,-1184432.137,0.0,0.0
10:11:20,-1175322.632,0.0,0.0
10:11:20,-1178599.432,0.0,0.0
10:11:20,-1182597.127,0.0,0.0
10:11:20,-1174863.877,0.0,0.0
10:11:20,-1177354.244,0.0,0.0
10:11:20,-1178599.426,0.0,0.0
10:11:20,-1169948.673,0.0,0.0
10:11:20,-1173618.687,0.0,0.0
10:11:20,-1177354.238,0.0,0.0
10:11:20,-1167065.086,0.0,0.0
10:11:20,-1170931.709,0.0,0.0
10:11:20,-1173094.398,0.0,0.0
10:11:20,-1166737.406,0.0,0.0
10:11:20,-1168965.631,0.0,0.0
10:11:20,-1171718.143,0.0,0.0
10:11:20,-1162805.246,0.0,0.0
10:11:20,-1166082.047,0.0,0.0
10:11:20,-1167327.231,0.0,0.0
10:11:20,-1159331.84,0.0,0.0
10:11:20,-1162936.319,0.0,0.0
10:11:20,-1162608.64,0.0,0.0
10:11:20,-1155858.432,0.0,0.0
10:11:20,-1159135.233,0.0,0.0
10:11:20,-1162477.568,0.0,0.0
10:11:20,-1156448.257,0.0,0.0
10:11:20,-1159790.593,0.0,0.0
10:11:20,-1159987.201,0.0,0.0
10:11:20,-1151205.377,0.0,0.0
10:11:20,-1155334.145,0.0,0.0
10:11:20,-1155727.361,0.0,0.0
10:11:20,-1148583.937,0.0,0.0
10:11:20,-1154220.033,0.0,0.0
10:11:20,-1154088.96,0.0,0.0
10:11:20,-1146028.032,0.0,0.0
10:11:20,-1149566.977,0.0,0.0
10:11:20,-1150418.945,0.0,0.0
10:11:20,-1143209.984,0.0,0.0
10:11:20,-1148846.081,0.0,0.0
10:11:20,-1148059.649,0.0,0.0
10:11:20,-1142161.41,0.0,0.0
10:11:20,-1147863.043,0.0,0.0
10:11:20,-1144979.46,0.0,0.0
10:11:20,-1140195.334,0.0,0.0
10:11:20,-1145700.357,0.0,0.0
10:11:20,-1143734.277,0.0,0.0
10:11:20,-1138950.148,0.0,0.0
10:11:20,-1143406.595,0.0,0.0
10:11:20,-1143537.665,0.0,0.0
10:11:20,-1137377.279,0.0,0.0
10:11:20,-1142947.839,0.0,0.0
10:11:20,-1141047.295,0.0,0.0
10:11:20,-1135607.808,0.0,0.0
10:11:20,-1140326.399,0.0,0.0
10:11:20,-1138294.784,0.0,0.0
10:11:20,-1133445.12,0.0,0.0
10:11:20,-1141112.833,0.0,0.0
10:11:20,-1138819.072,0.0,0.0
10:11:20,-1132789.761,0.0,0.0
10:11:20,-1139736.576,0.0,0.0
10:11:20,-1136656.382,0.0,0.0
10:11:20,-1132462.079,0.0,0.0
10:11:20,-1138950.156,0.0,0.0
10:11:20,-1135738.911,0.0,0.0
10:11:20,-1133183.013,0.0,0.0
10:11:20,-1138294.808,0.0,0.0
10:11:20,-1136394.246,0.0,0.0
10:11:20,-1133510.654,0.0,0.0
10:11:20,-1139146.751,0.0,0.0
10:11:20,-1133314.048,0.0,0.0
10:11:20,-1130233.857,0.0,0.0
10:11:20,-1137442.817,0.0,0.0
10:11:20,-1134034.945,0.0,0.0
10:11:20,-1130233.857,0.0,0.0
10:11:20,-1138163.713,0.0,0.0
10:11:20,-1132265.473,0.0,0.0
10:11:20,-1128923.137,0.0,0.0
10:11:20,-1137180.673,0.0,0.0
10:11:21,-1135280.129,0.0,0.0
10:11:21,-1132658.689,0.0,0.0
10:11:21,-1138819.073,0.0,0.0
10:11:21,-1134034.945,0.0,0.0
10:11:21,-1130889.217,0.0,0.0
10:11:21,-1137967.105,0.0,0.0
10:11:21,-1134690.305,0.0,0.0
10:11:21,-1130954.755,0.0,0.0
10:11:21,-1133838.339,0.0,0.0
10:11:21,-1134166.021,0.0,0.0
10:11:21,-1132658.694,0.0,0.0
10:11:21,-1136590.856,0.0,0.0
10:11:21,-1131282.441,0.0,0.0
10:11:21,-1132462.089,0.0,0.0
10:11:21,-1135738.89,0.0,0.0
10:11:21,-1132068.874,0.0,0.0
10:11:21,-1132396.553,0.0,0.0
10:11:21,-1138491.401,0.0,0.0
10:11:21,-1134952.456,0.0,0.0
10:11:21,-1132724.231,0.0,0.0
10:11:21,-1137180.677,0.0,0.0
10:11:21,-1132789.763,0.0,0.0
10:11:21,-1132920.834,0.0,0.0
10:11:21,-1137508.352,0.0,0.0
10:11:21,-1128988.671,0.0,0.0
10:11:21,-1129054.206,0.0,0.0
10:11:21,-1137180.669,0.0,0.0
10:11:21,-1133379.582,0.0,0.0
10:11:21,-1133969.406,0.0,0.0
10:11:21,-1137704.958,0.0,0.0
10:11:21,-1131806.719,0.0,0.0
10:11:21,-1131675.646,0.0,0.0
10:11:21,-1138032.639,0.0,0.0
10:11:21,-1133838.335,0.0,0.0
10:11:21,-1134690.304,0.0,0.0
10:11:21,-1138491.391,0.0,0.0
10:11:21,-1130364.928,0.0,0.0
10:11:21,-1130496.0,0.0,0.0
10:11:21,-1137704.96,0.0,0.0
10:11:21,-1130954.752,0.0,0.0
10:11:21,-1133903.873,0.0,0.0
10:11:21,-1138294.785,0.0,0.0
10:11:21,-1131020.289,0.0,0.0
10:11:21,-1133707.265,0.0,0.0
10:11:21,-1140064.257,0.0,0.0
10:11:21,-1133379.584,0.0,0.0
10:11:21,-1132331.008,0.0,0.0
10:11:21,-1136984.065,0.0,0.0
10:11:21,-1133248.512,0.0,0.0
10:11:21,-1136394.24,0.0,0.0
10:11:21,-1138491.393,0.0,0.0
10:11:21,-1132986.368,0.0,0.0
10:11:21,-1134362.625,0.0,0.0
10:11:21,-1136918.528,0.0,0.0
10:11:21,-1131872.257,0.0,0.0
10:11:21,-1136263.169,0.0,0.0
10:11:21,-1140129.795,0.0,0.0
10:11:21,-1134034.948,0.0,0.0
10:11:21,-1138098.18,0.0,0.0
10:11:21,-1140260.869,0.0,0.0
10:11:21,-1131872.262,0.0,0.0
10:11:21,-1137836.037,0.0,0.0
10:11:21,-1142292.484,0.0,0.0
10:11:21,-1132265.474,0.0,0.0
10:11:21,-1134034.945,0.0,0.0
10:11:21,-1138163.712,0.0,0.0
10:11:21,-1131610.111,0.0,0.0
10:11:21,-1136459.776,0.0,0.0
10:11:21,-1140391.936,0.0,0.0
10:11:21,-1131610.113,0.0,0.0
10:11:21,-1135869.952,0.0,0.0
10:11:21,-1140129.792,0.0,0.0
10:11:21,-1134493.697,0.0,0.0
10:11:21,-1138622.465,0.0,0.0
10:11:21,-1141899.265,0.0,0.0
10:11:21,-1134624.767,0.0,0.0
10:11:21,-1139539.965,0.0,0.0
10:11:21,-1142095.873,0.0,0.0
10:11:21,-1136590.865,0.0,0.0
10:11:21,-1139736.608,0.0,0.0
10:11:21,-1140260.897,0.0,0.0
10:11:21,-1133510.674,0.0,0.0
10:11:21,-1137770.499,0.0,0.0
10:11:21,-1142095.868,0.0,0.0
10:11:21,-1136197.629,0.0,0.0
10:11:21,-1139474.432,0.0,0.0
10:11:21,-1140391.936,0.0,0.0
10:11:21,-1136001.025,0.0,0.0
10:11:21,-1144258.56,0.0,0.0
10:11:21,-1143078.913,0.0,0.0
10:11:21,-1136852.993,0.0,0.0
10:11:21,-1141768.192,0.0,0.0
10:11:21,-1140457.473,0.0,0.0
10:11:21,-1136787.457,0.0,0.0
10:11:21,-1141243.905,0.0,0.0
10:11:21,-1141833.728,0.0,0.0
10:11:21,-1136263.168,0.0,0.0
10:11:21,-1142751.233,0.0,0.0
10:11:21,-1141964.801,0.0,0.0
10:11:21,-1136918.529,0.0,0.0
10:11:21,-1143799.809,0.0,0.0
10:11:21,-1142030.338,0.0,0.0
10:11:21,-1135804.42,0.0,0.0
10:11:21,-1146093.573,0.0,0.0
10:11:21,-1145700.359,0.0,0.0
10:11:21,-1140129.799,0.0,0.0
10:11:21,-1146355.721,0.0,0.0
10:11:21,-1144061.961,0.0,0.0
10:11:21,-1139015.69,0.0,0.0
10:11:21,-1145700.362,0.0,0.0
10:11:21,-1142554.633,0.0,0.0
10:11:21,-1139474.441,0.0,0.0
10:11:21,-1147207.688,0.0,0.0
10:11:21,-1144520.71,0.0,0.0
10:11:21,-1140129.797,0.0,0.0
10:11:21,-1146617.859,0.0,0.0
10:11:21,-1146814.466,0.0,0.0
10:11:21,-1141374.976,0.0,0.0
10:11:21,-1148190.718,0.0,0.0
10:11:21,-1145765.886,0.0,0.0
10:11:21,-1143144.445,0.0,0.0
10:11:21,-1150812.157,0.0,0.0
10:11:21,-1146355.71,0.0,0.0
10:11:21,-1143013.374,0.0,0.0
10:11:22,-1150353.407,0.0,0.0
10:11:22,-1147666.43,0.0,0.0
10:11:22,-1142226.943,0.0,0.0
10:11:22,-1149370.367,0.0,0.0
10:11:22,-1148911.616,0.0,0.0
10:11:22,-1145044.991,0.0,0.0
10:11:22,-1153040.384,0.0,0.0
10:11:22,-1148583.936,0.0,0.0
10:11:22,-1145962.497,0.0,0.0
10:11:22,-1155399.68,0.0,0.0
10:11:22,-1149435.905,0.0,0.0
10:11:22,-1144127.488,0.0,0.0
10:11:22,-1150287.872,0.0,0.0
10:11:22,-1151401.985,0.0,0.0
10:11:22,-1148321.793,0.0,0.0
10:11:22,-1153433.601,0.0,0.0
10:11:22,-1148518.401,0.0,0.0
10:11:22,-1146355.713,0.0,0.0
10:11:22,-1155792.897,0.0,0.0
10:11:22,-1151533.057,0.0,0.0
10:11:22,-1148583.937,0.0,0.0
10:11:22,-1155923.968,0.0,0.0
10:11:22,-1152516.096,0.0,0.0
10:11:22,-1151795.2,0.0,0.0
10:11:22,-1155989.505,0.0,0.0
10:11:22,-1152057.345,0.0,0.0
10:11:22,-1150615.555,0.0,0.0
10:11:22,-1157038.083,0.0,0.0
10:11:22,-1152712.708,0.0,0.0
10:11:22,-1152253.958,0.0,0.0
10:11:22,-1159659.525,0.0,0.0
10:11:22,-1153564.677,0.0,0.0
10:11:22,-1151729.667,0.0,0.0
10:11:22,-1158742.018,0.0,0.0
10:11:22,-1156055.039,0.0,0.0
10:11:22,-1154940.927,0.0,0.0
10:11:22,-1161494.527,0.0,0.0
10:11:22,-1156972.544,0.0,0.0
10:11:22,-1154940.928,0.0,0.0
10:11:22,-1161953.28,0.0,0.0
10:11:22,-1157627.905,0.0,0.0
10:11:22,-1158742.016,0.0,0.0
10:11:22,-1164050.432,0.0,0.0
10:11:22,-1155923.969,0.0,0.0
10:11:22,-1157234.688,0.0,0.0
10:11:22,-1161953.279,0.0,0.0
10:11:22,-1155399.678,0.0,0.0
10:11:22,-1157038.085,0.0,0.0
10:11:22,-1163853.846,0.0,0.0
10:11:22,-1158479.908,0.0,0.0
10:11:22,-1158938.655,0.0,0.0
10:11:22,-1166934.029,0.0,0.0
10:11:22,-1159987.2,0.0,0.0
10:11:22,-1160249.342,0.0,0.0
10:11:22,-1167851.519,0.0,0.0
10:11:22,-1162674.176,0.0,0.0
10:11:22,-1161822.209,0.0,0.0
10:11:22,-1168179.201,0.0,0.0
10:11:22,-1162084.353,0.0,0.0
10:11:22,-1161756.672,0.0,0.0
10:11:22,-1168310.272,0.0,0.0
10:11:22,-1163198.465,0.0,0.0
10:11:22,-1162215.425,0.0,0.0
10:11:22,-1168769.025,0.0,0.0
10:11:22,-1164509.185,0.0,0.0
10:11:22,-1166409.729,0.0,0.0
10:11:22,-1173684.225,0.0,0.0
10:11:22,-1168048.129,0.0,0.0
10:11:22,-1167327.233,0.0,0.0
10:11:22,-1174798.337,0.0,0.0
10:11:22,-1166802.946,0.0,0.0
10:11:22,-1166082.051,0.0,0.0
10:11:22,-1173225.476,0.0,0.0
10:11:22,-1168506.886,0.0,0.0
10:11:22,-1169752.071,0.0,0.0
10:11:22,-1175781.383,0.0,0.0
10:11:22,-1171390.473,0.0,0.0
10:11:22,-1173487.625,0.0,0.0
10:11:22,-1177157.642,0.0,0.0
10:11:22,-1171849.225,0.0,0.0
10:11:22,-1171324.937,0.0,0.0
10:11:22,-1176502.28,0.0,0.0
10:11:22,-1170997.255,0.0,0.0
10:11:22,-1174470.662,0.0,0.0
10:11:22,-1181876.228,0.0,0.0
10:11:22,-1174601.731,0.0,0.0
10:11:22,-1176961.025,0.0,0.0
10:11:22,-1180827.648,0.0,0.0
10:11:22,-1175388.158,0.0,0.0
10:11:22,-1177550.846,0.0,0.0
10:11:22,-1184694.269,0.0,0.0
10:11:22,-1178992.637,0.0,0.0
10:11:22,-1179779.07,0.0,0.0
10:11:22,-1182466.046,0.0,0.0
10:11:22,-1176829.951,0.0,0.0
10:11:22,-1180565.502,0.0,0.0
10:11:22,-1184956.415,0.0,0.0
10:11:22,-1178927.103,0.0,0.0
10:11:22,-1179516.928,0.0,0.0
10:11:22,-1186660.351,0.0,0.0
10:11:22,-1181483.007,0.0,0.0
10:11:22,-1183973.376,0.0,0.0
10:11:22,-1187840.0,0.0,0.0
10:11:22,-1179910.145,0.0,0.0
10:11:22,-1182269.441,0.0,0.0
10:11:22,-1186594.817,0.0,0.0
10:11:22,-1180303.36,0.0,0.0
10:11:22,-1185087.488,0.0,0.0
10:11:22,-1186463.745,0.0,0.0
10:11:22,-1181679.617,0.0,0.0
10:11:22,-1186004.993,0.0,0.0
10:11:22,-1190264.832,0.0,0.0
10:11:22,-1185742.848,0.0,0.0
10:11:22,-1189281.793,0.0,0.0
10:11:22,-1191444.481,0.0,0.0
10:11:22,-1184038.913,0.0,0.0
10:11:22,-1188954.113,0.0,0.0
10:11:22,-1189085.185,0.0,0.0
10:11:22,-1183776.769,0.0,0.0
10:11:22,-1188888.577,0.0,0.0
10:11:22,-1188560.899,0.0,0.0
10:11:22,-1182859.268,0.0,0.0
10:11:22,-1189216.261,0.0,0.0
10:11:22,-1189019.654,0.0,0.0
10:11:22,-1183318.021,0.0,0.0
10:11:23,-1188364.293,0.0,0.0
10:11:23,-1190264.835,0.0,0.0
10:11:23,-1184825.345,0.0,0.0
10:11:23,-1190002.688,0.0,0.0
10:11:23,-1191116.799,0.0,0.0
10:11:23,-1185611.776,0.0,0.0
10:11:23,-1189937.151,0.0,0.0
10:11:23,-1190526.975,0.0,0.0
10:11:23,-1184825.344,0.0,0.0
10:11:23,-1190723.584,0.0,0.0
10:11:23,-1189937.152,0.0,0.0
10:11:23,-1185021.953,0.0,0.0
10:11:23,-1189937.153,0.0,0.0
10:11:23,-1191116.8,0.0,0.0
10:11:23,-1184432.125,0.0,0.0
10:11:23,-1188691.966,0.0,0.0
10:11:23,-1189478.409,0.0,0.0
10:11:23,-1183842.331,0.0,0.0
10:11:23,-1189216.292,0.0,0.0
10:11:23,-1190592.538,0.0,0.0
10:11:23,-1184825.353,0.0,0.0
10:11:23,-1190264.83,0.0,0.0
10:11:23,-1187905.533,0.0,0.0
10:11:23,-1182662.656,0.0,0.0
10:11:23,-1190789.12,0.0,0.0
10:11:23,-1189150.72,0.0,0.0
10:11:23,-1181745.153,0.0,0.0
10:11:23,-1187446.785,0.0,0.0
10:11:23,-1187315.713,0.0,0.0
10:11:23,-1182728.192,0.0,0.0
10:11:23,-1188429.825,0.0,0.0
10:11:23,-1184694.272,0.0,0.0
10:11:23,-1182203.904,0.0,0.0
10:11:23,-1190199.297,0.0,0.0
10:11:23,-1187250.177,0.0,0.0
10:11:23,-1181024.257,0.0,0.0
10:11:23,-1188167.681,0.0,0.0
10:11:23,-1186725.889,0.0,0.0
10:11:23,-1180237.825,0.0,0.0
10:11:23,-1187315.714,0.0,0.0
10:11:23,-1183645.7,0.0,0.0
10:11:23,-1177681.925,0.0,0.0
10:11:23,-1185021.957,0.0,0.0
10:11:23,-1181220.871,0.0,0.0
10:11:23,-1177944.072,0.0,0.0
10:11:23,-1183842.313,0.0,0.0
10:11:23,-1180631.049,0.0,0.0
10:11:23,-1177157.642,0.0,0.0
10:11:23,-1180631.049,0.0,0.0
10:11:23,-1178468.36,0.0,0.0
10:11:23,-1174339.592,0.0,0.0
10:11:23,-1180172.295,0.0,0.0
10:11:23,-1177092.101,0.0,0.0
10:11:23,-1172373.508,0.0,0.0
10:11:23,-1177550.85,0.0,0.0
10:11:23,-1173946.369,0.0,0.0
10:11:23,-1169752.063,0.0,0.0
10:11:23,-1175650.302,0.0,0.0
10:11:23,-1172504.574,0.0,0.0
10:11:23,-1169948.669,0.0,0.0
10:11:23,-1172439.038,0.0,0.0
10:11:23,-1168703.486,0.0,0.0
10:11:23,-1167785.983,0.0,0.0
10:11:23,-1170276.35,0.0,0.0
10:11:23,-1165361.151,0.0,0.0
10:11:23,-1164312.575,0.0,0.0
10:11:23,-1168703.488,0.0,0.0
10:11:23,-1160577.023,0.0,0.0
10:11:23,-1159725.056,0.0,0.0
10:11:23,-1168637.952,0.0,0.0
10:11:23,-1161363.457,0.0,0.0
10:11:23,-1157627.904,0.0,0.0
10:11:23,-1162149.888,0.0,0.0
10:11:23,-1156448.257,0.0,0.0
10:11:23,-1155530.753,0.0,0.0
10:11:23,-1162149.889,0.0,0.0
10:11:23,-1155727.36,0.0,0.0
10:11:23,-1152253.952,0.0,0.0
10:11:23,-1158152.193,0.0,0.0
10:11:23,-1152974.848,0.0,0.0
10:11:23,-1149566.977,0.0,0.0
10:11:23,-1153433.601,0.0,0.0
10:11:23,-1146028.032,0.0,0.0
10:11:23,-1145176.065,0.0,0.0
10:11:23,-1151205.377,0.0,0.0
10:11:23,-1142095.873,0.0,0.0
10:11:23,-1141309.44,0.0,0.0
10:11:23,-1149173.76,0.0,0.0
10:11:23,-1141964.802,0.0,0.0
10:11:23,-1143209.987,0.0,0.0
10:11:23,-1148649.477,0.0,0.0
10:11:23,-1144651.781,0.0,0.0
10:11:23,-1142226.95,0.0,0.0
10:11:23,-1147207.685,0.0,0.0
10:11:23,-1142358.021,0.0,0.0
10:11:23,-1140391.939,0.0,0.0
10:11:23,-1144782.848,0.0,0.0
10:11:23,-1138556.928,0.0,0.0
10:11:23,-1138819.071,0.0,0.0
10:11:23,-1144913.919,0.0,0.0
10:11:23,-1138688.0,0.0,0.0
10:11:23,-1137901.568,0.0,0.0
10:11:23,-1142685.697,0.0,0.0
10:11:23,-1135935.488,0.0,0.0
10:11:23,-1137704.96,0.0,0.0
10:11:23,-1140523.009,0.0,0.0
10:11:23,-1132593.153,0.0,0.0
10:11:23,-1136590.847,0.0,0.0
10:11:23,-1140129.789,0.0,0.0
10:11:23,-1132986.367,0.0,0.0
10:11:23,-1133903.886,0.0,0.0
10:11:23,-1138622.496,0.0,0.0
10:11:23,-1134034.98,0.0,0.0
10:11:23,-1135214.614,0.0,0.0
10:11:23,-1138753.541,0.0,0.0
10:11:23,-1131282.43,0.0,0.0
10:11:23,-1134755.839,0.0,0.0
10:11:23,-1139605.504,0.0,0.0
10:11:23,-1131479.041,0.0,0.0
10:11:23,-1135280.128,0.0,0.0
10:11:23,-1139015.68,0.0,0.0
10:11:23,-1131544.577,0.0,0.0
10:11:23,-1134362.625,0.0,0.0
10:11:23,-1139408.897,0.0,0.0
10:11:23,-1131085.825,0.0,0.0
10:11:24,-1134690.305,0.0,0.0
10:11:24,-1135738.88,0.0,0.0
10:11:24,-1131282.432,0.0,0.0
10:11:24,-1134493.697,0.0,0.0
10:11:24,-1136328.705,0.0,0.0
10:11:24,-1129971.713,0.0,0.0
10:11:24,-1134231.553,0.0,0.0
10:11:24,-1134428.162,0.0,0.0
10:11:24,-1128923.138,0.0,0.0
10:11:24,-1135149.059,0.0,0.0
10:11:24,-1135673.349,0.0,0.0
10:11:24,-1130430.47,0.0,0.0
10:11:24,-1134428.168,0.0,0.0
10:11:24,-1135017.993,0.0,0.0
10:11:24,-1130561.545,0.0,0.0
10:11:24,-1136132.106,0.0,0.0
10:11:24,-1136984.074,0.0,0.0
10:11:24,-1130233.865,0.0,0.0
10:11:24,-1135083.529,0.0,0.0
10:11:24,-1136197.639,0.0,0.0
10:11:24,-1129775.111,0.0,0.0
10:11:24,-1135280.133,0.0,0.0
10:11:24,-1134166.019,0.0,0.0
10:11:24,-1130037.25,0.0,0.0
10:11:24,-1135542.272,0.0,0.0
10:11:24,-1135149.055,0.0,0.0
10:11:24,-1129316.349,0.0,0.0
10:11:24,-1137311.741,0.0,0.0
10:11:24,-1135280.126,0.0,0.0
10:11:24,-1130692.606,0.0,0.0
10:11:24,-1136984.062,0.0,0.0
10:11:24,-1135083.519,0.0,0.0
10:11:24,-1129512.958,0.0,0.0
10:11:24,-1137180.671,0.0,0.0
10:11:24,-1136590.847,0.0,0.0
10:11:24,-1130233.855,0.0,0.0
10:11:24,-1136656.384,0.0,0.0
10:11:24,-1133248.512,0.0,0.0
10:11:24,-1129119.745,0.0,0.0
10:11:24,-1136984.064,0.0,0.0
10:11:24,-1133838.337,0.0,0.0
10:11:24,-1129709.569,0.0,0.0
10:11:24,-1136656.384,0.0,0.0
10:11:24,-1135017.985,0.0,0.0
10:11:24,-1131544.577,0.0,0.0
10:11:24,-1136852.993,0.0,0.0
10:11:24,-1133576.193,0.0,0.0
10:11:24,-1130430.465,0.0,0.0
10:11:24,-1136001.025,0.0,0.0
10:11:24,-1134231.553,0.0,0.0
10:11:24,-1132724.225,0.0,0.0
10:11:24,-1139933.185,0.0,0.0
10:11:24,-1136525.313,0.0,0.0
10:11:24,-1132396.545,0.0,0.0
10:11:24,-1140064.257,0.0,0.0
10:11:24,-1137246.209,0.0,0.0
10:11:24,-1133182.977,0.0,0.0
10:11:24,-1138229.251,0.0,0.0
10:11:24,-1134952.451,0.0,0.0
10:11:24,-1133707.269,0.0,0.0
10:11:24,-1138491.397,0.0,0.0
10:11:24,-1133969.413,0.0,0.0
10:11:24,-1131937.797,0.0,0.0
10:11:24,-1139671.043,0.0,0.0
10:11:24,-1136918.529,0.0,0.0
10:11:24,-1133772.8,0.0,0.0
10:11:24,-1141112.831,0.0,0.0
10:11:24,-1137573.888,0.0,0.0
10:11:24,-1134821.375,0.0,0.0
10:11:24,-1141637.119,0.0,0.0
10:11:24,-1136197.632,0.0,0.0
10:11:24,-1135935.488,0.0,0.0
10:11:24,-1143406.592,0.0,0.0
10:11:24,-1136066.561,0.0,0.0
10:11:24,-1134559.233,0.0,0.0
10:11:24,-1140916.225,0.0,0.0
10:11:24,-1136328.702,0.0,0.0
10:11:24,-1135280.125,0.0,0.0
10:11:24,-1139802.115,0.0,0.0
10:11:24,-1134493.715,0.0,0.0
10:11:24,-1135673.377,0.0,0.0
10:11:24,-1141112.864,0.0,0.0
10:11:24,-1138098.192,0.0,0.0
10:11:24,-1136525.314,0.0,0.0
10:11:24,-1142226.941,0.0,0.0
10:11:24,-1137573.887,0.0,0.0
10:11:24,-1137704.96,0.0,0.0
10:11:24,-1141178.369,0.0,0.0
10:11:24,-1137901.568,0.0,0.0
10:11:24,-1138688.0,0.0,0.0
10:11:24,-1142751.233,0.0,0.0
10:11:24,-1134755.841,0.0,0.0
10:11:24,-1135017.984,0.0,0.0
10:11:24,-1141440.513,0.0,0.0
10:11:24,-1137311.745,0.0,0.0
10:11:24,-1138229.249,0.0,0.0
10:11:24,-1146028.032,0.0,0.0
10:11:24,-1139343.361,0.0,0.0
10:11:24,-1139671.041,0.0,0.0
10:11:24,-1146552.32,0.0,0.0
10:11:24,-1140129.793,0.0,0.0
10:11:24,-1138688.001,0.0,0.0
10:11:24,-1145634.819,0.0,0.0
10:11:24,-1139474.436,0.0,0.0
10:11:24,-1140457.478,0.0,0.0
10:11:24,-1143996.422,0.0,0.0
10:11:24,-1138098.183,0.0,0.0
10:11:24,-1139998.729,0.0,0.0
10:11:24,-1144651.785,0.0,0.0
10:11:24,-1138491.402,0.0,0.0
10:11:24,-1141178.378,0.0,0.0
10:11:24,-1147600.905,0.0,0.0
10:11:24,-1140916.233,0.0,0.0
10:11:24,-1143865.352,0.0,0.0
10:11:24,-1148846.086,0.0,0.0
10:11:24,-1141571.589,0.0,0.0
10:11:24,-1145503.747,0.0,0.0
10:11:24,-1149239.298,0.0,0.0
10:11:24,-1143865.344,0.0,0.0
10:11:24,-1143865.342,0.0,0.0
10:11:24,-1148846.078,0.0,0.0
10:11:24,-1143275.517,0.0,0.0
10:11:24,-1145241.597,0.0,0.0
10:11:24,-1150353.406,0.0,0.0
10:11:24,-1143603.198,0.0,0.0
10:11:25,-1144520.703,0.0,0.0
10:11:25,-1148649.471,0.0,0.0
10:11:25,-1144455.166,0.0,0.0
10:11:25,-1146421.247,0.0,0.0
10:11:25,-1150681.087,0.0,0.0
10:11:25,-1146159.103,0.0,0.0
10:11:25,-1149632.512,0.0,0.0
10:11:25,-1151926.272,0.0,0.0
10:11:25,-1145372.673,0.0,0.0
10:11:25,-1149566.977,0.0,0.0
10:11:25,-1151991.808,0.0,0.0
10:11:25,-1144520.705,0.0,0.0
10:11:25,-1149239.297,0.0,0.0
10:11:25,-1151991.808,0.0,0.0
10:11:25,-1146683.393,0.0,0.0
10:11:25,-1149108.225,0.0,0.0
10:11:25,-1153236.992,0.0,0.0
10:11:25,-1147404.288,0.0,0.0
10:11:25,-1151401.985,0.0,0.0
10:11:25,-1153892.352,0.0,0.0
10:11:25,-1147273.216,0.0,0.0
10:11:25,-1152253.953,0.0,0.0
10:11:25,-1154547.713,0.0,0.0
10:11:25,-1147928.577,0.0,0.0
10:11:25,-1154482.176,0.0,0.0
10:11:25,-1155989.505,0.0,0.0
10:11:25,-1149370.371,0.0,0.0
10:11:25,-1152516.099,0.0,0.0
10:11:25,-1154023.428,0.0,0.0
10:11:25,-1148387.334,0.0,0.0
10:11:25,-1155465.221,0.0,0.0
10:11:25,-1157955.589,0.0,0.0
10:11:25,-1151401.987,0.0,0.0
10:11:25,-1155596.29,0.0,0.0
10:11:25,-1158545.407,0.0,0.0
10:11:25,-1153957.887,0.0,0.0
10:11:25,-1157496.831,0.0,0.0
10:11:25,-1159790.592,0.0,0.0
10:11:25,-1153957.887,0.0,0.0
10:11:25,-1158873.088,0.0,0.0
10:11:25,-1158873.088,0.0,0.0
10:11:25,-1153892.353,0.0,0.0
10:11:25,-1159528.448,0.0,0.0
10:11:25,-1160052.737,0.0,0.0
10:11:25,-1154875.392,0.0,0.0
10:11:25,-1160511.486,0.0,0.0
10:11:25,-1161625.598,0.0,0.0
10:11:25,-1154547.718,0.0,0.0
10:11:25,-1161363.48,0.0,0.0
10:11:25,-1162280.996,0.0,0.0
10:11:25,-1157496.862,0.0,0.0
10:11:25,-1164115.98,0.0,0.0
10:11:25,-1165099.007,0.0,0.0
10:11:25,-1160183.806,0.0,0.0
10:11:25,-1164443.648,0.0,0.0
10:11:25,-1164378.112,0.0,0.0
10:11:25,-1158479.873,0.0,0.0
10:11:25,-1163657.216,0.0,0.0
10:11:25,-1162870.785,0.0,0.0
10:11:25,-1160904.705,0.0,0.0
10:11:25,-1167196.16,0.0,0.0
10:11:25,-1165885.441,0.0,0.0
10:11:25,-1161035.777,0.0,0.0
10:11:25,-1166344.193,0.0,0.0
10:11:25,-1168441.344,0.0,0.0
10:11:25,-1164574.72,0.0,0.0
10:11:25,-1170538.497,0.0,0.0
10:11:25,-1169555.457,0.0,0.0
10:11:25,-1164050.433,0.0,0.0
10:11:25,-1170800.641,0.0,0.0
10:11:25,-1170735.106,0.0,0.0
10:11:25,-1166999.555,0.0,0.0
10:11:25,-1173684.228,0.0,0.0
10:11:25,-1170341.894,0.0,0.0
10:11:25,-1164967.942,0.0,0.0
10:11:25,-1172176.903,0.0,0.0
10:11:25,-1172176.905,0.0,0.0
10:11:25,-1167720.457,0.0,0.0
10:11:25,-1174011.914,0.0,0.0
10:11:25,-1173094.409,0.0,0.0
10:11:25,-1170145.288,0.0,0.0
10:11:25,-1178075.144,0.0,0.0
10:11:25,-1175846.919,0.0,0.0
10:11:25,-1170604.038,0.0,0.0
10:11:25,-1178992.644,0.0,0.0
10:11:25,-1177485.314,0.0,0.0
10:11:25,-1173094.401,0.0,0.0
10:11:25,-1179844.607,0.0,0.0
10:11:25,-1177550.846,0.0,0.0
10:11:25,-1174929.406,0.0,0.0
10:11:25,-1181417.469,0.0,0.0
10:11:25,-1178992.638,0.0,0.0
10:11:25,-1177616.382,0.0,0.0
10:11:25,-1183776.767,0.0,0.0
10:11:25,-1179975.678,0.0,0.0
10:11:25,-1180368.895,0.0,0.0
10:11:25,-1186201.599,0.0,0.0
10:11:25,-1181548.544,0.0,0.0
10:11:25,-1179779.072,0.0,0.0
10:11:25,-1186922.495,0.0,0.0
10:11:25,-1182990.336,0.0,0.0
10:11:25,-1181548.544,0.0,0.0
10:11:25,-1189478.401,0.0,0.0
10:11:25,-1181810.689,0.0,0.0
10:11:25,-1181417.473,0.0,0.0
10:11:25,-1189150.721,0.0,0.0
10:11:25,-1182793.728,0.0,0.0
10:11:25,-1180696.576,0.0,0.0
10:11:25,-1188757.505,0.0,0.0
10:11:25,-1186594.817,0.0,0.0
10:11:25,-1187184.641,0.0,0.0
10:11:25,-1189871.617,0.0,0.0
10:11:25,-1184628.737,0.0,0.0
10:11:25,-1185349.633,0.0,0.0
10:11:25,-1191772.16,0.0,0.0
10:11:25,-1186660.352,0.0,0.0
10:11:25,-1183973.377,0.0,0.0
10:11:25,-1190068.225,0.0,0.0
10:11:25,-1185087.489,0.0,0.0
10:11:25,-1183973.377,0.0,0.0
10:11:25,-1189085.187,0.0,0.0
10:11:25,-1185021.956,0.0,0.0
10:11:25,-1185677.317,0.0,0.0
10:11:25,-1190985.734,0.0,0.0
10:11:25,-1184038.917,0.0,0.0
10:11:26,-1186791.428,0.0,0.0
10:11:26,-1191510.019,0.0,0.0
10:11:26,-1185153.025,0.0,0.0
10:11:26,-1186988.032,0.0,0.0
10:11:26,-1191444.479,0.0,0.0
10:11:26,-1186332.671,0.0,0.0
10:11:26,-1187708.928,0.0,0.0
10:11:26,-1189675.007,0.0,0.0
10:11:26,-1184694.272,0.0,0.0
10:11:26,-1188298.752,0.0,0.0
10:11:26,-1190461.441,0.0,0.0
10:11:26,-1183383.552,0.0,0.0
10:11:26,-1187184.64,0.0,0.0
10:11:26,-1190068.224,0.0,0.0
10:11:26,-1183252.477,0.0,0.0
10:11:26,-1188036.607,0.0,0.0
10:11:26,-1190592.523,0.0,0.0
10:11:26,-1181220.892,0.0,0.0
10:11:26,-1186332.708,0.0,0.0
10:11:26,-1191313.433,0.0,0.0
10:11:26,-1183121.415,0.0,0.0
10:11:26,-1187839.999,0.0,0.0
10:11:26,-1190658.046,0.0,0.0
10:11:26,-1182269.44,0.0,0.0
10:11:26,-1185349.632,0.0,0.0
10:11:26,-1188429.825,0.0,0.0
10:11:26,-1182138.369,0.0,0.0
10:11:26,-1186725.888,0.0,0.0
10:11:26,-1189085.185,0.0,0.0
10:11:26,-1182793.729,0.0,0.0
10:11:26,-1185742.848,0.0,0.0
10:11:26,-1187315.713,0.0,0.0
10:11:26,-1180041.217,0.0,0.0
10:11:26,-1186594.817,0.0,0.0
10:11:26,-1188298.753,0.0,0.0
10:11:26,-1181876.225,0.0,0.0
10:11:26,-1185218.561,0.0,0.0
10:11:26,-1186136.065,0.0,0.0
10:11:26,-1178730.497,0.0,0.0
10:11:26,-1183907.842,0.0,0.0
10:11:26,-1183514.627,0.0,0.0
10:11:26,-1177812.997,0.0,0.0
10:11:26,-1184169.99,0.0,0.0
10:11:26,-1186070.535,0.0,0.0
10:11:26,-1178730.504,0.0,0.0
10:11:26,-1183973.385,0.0,0.0
10:11:26,-1183711.241,0.0,0.0
10:11:26,-1177419.785,0.0,0.0
10:11:26,-1181941.769,0.0,0.0
10:11:26,-1181483.016,0.0,0.0
10:11:26,-1174994.952,0.0,0.0
10:11:26,-1179582.471,0.0,0.0
10:11:26,-1178796.037,0.0,0.0
10:11:26,-1173487.62,0.0,0.0
10:11:26,-1176764.418,0.0,0.0
10:11:26,-1176043.521,0.0,0.0
10:11:26,-1169686.527,0.0,0.0
10:11:26,-1174142.973,0.0,0.0
10:11:26,-1172766.718,0.0,0.0
10:11:26,-1168769.021,0.0,0.0
10:11:26,-1174274.046,0.0,0.0
10:11:26,-1171587.07,0.0,0.0
10:11:26,-1164967.935,0.0,0.0
10:11:26,-1170472.958,0.0,0.0
10:11:26,-1166016.511,0.0,0.0
10:11:26,-1159069.695,0.0,0.0
10:11:26,-1163591.68,0.0,0.0
10:11:26,-1164378.111,0.0,0.0
10:11:26,-1158545.408,0.0,0.0
10:11:26,-1163788.288,0.0,0.0
10:11:26,-1161035.777,0.0,0.0
10:11:26,-1156251.649,0.0,0.0
10:11:26,-1164378.113,0.0,0.0
10:11:26,-1159790.593,0.0,0.0
10:11:26,-1153826.817,0.0,0.0
10:11:26,-1158283.265,0.0,0.0
10:11:26,-1155137.537,0.0,0.0
10:11:26,-1149698.049,0.0,0.0
10:11:26,-1154678.785,0.0,0.0
10:11:26,-1154220.033,0.0,0.0
10:11:26,-1146945.537,0.0,0.0
10:11:26,-1152450.56,0.0,0.0
10:11:26,-1149042.688,0.0,0.0
10:11:26,-1143734.273,0.0,0.0
10:11:26,-1150353.408,0.0,0.0
10:11:26,-1147469.824,0.0,0.0
10:11:26,-1142226.945,0.0,0.0
10:11:26,-1149239.297,0.0,0.0
10:11:26,-1141637.122,0.0,0.0
10:11:26,-1140916.227,0.0,0.0
10:11:26,-1149042.693,0.0,0.0
10:11:26,-1143013.382,0.0,0.0
10:11:26,-1138491.397,0.0,0.0
10:11:26,-1143406.597,0.0,0.0
10:11:26,-1139933.188,0.0,0.0
10:11:26,-1136197.634,0.0,0.0
10:11:26,-1144193.025,0.0,0.0
10:11:26,-1140129.791,0.0,0.0
10:11:26,-1135411.199,0.0,0.0
10:11:26,-1141243.904,0.0,0.0
10:11:26,-1138229.247,0.0,0.0
10:11:26,-1136066.56,0.0,0.0
10:11:26,-1142226.944,0.0,0.0
10:11:26,-1136656.385,0.0,0.0
10:11:26,-1135607.808,0.0,0.0
10:11:26,-1141899.265,0.0,0.0
10:11:26,-1136787.457,0.0,0.0
10:11:26,-1133641.727,0.0,0.0
10:11:26,-1138163.709,0.0,0.0
10:11:26,-1132855.297,0.0,0.0
10:11:26,-1132265.487,0.0,0.0
10:11:26,-1139015.712,0.0,0.0
10:11:26,-1135018.019,0.0,0.0
10:11:26,-1131872.276,0.0,0.0
10:11:26,-1138425.859,0.0,0.0
10:11:26,-1133969.405,0.0,0.0
10:11:26,-1132855.295,0.0,0.0
10:11:26,-1138163.712,0.0,0.0
10:11:26,-1133969.408,0.0,0.0
10:11:26,-1132593.153,0.0,0.0
10:11:26,-1136328.704,0.0,0.0
10:11:26,-1131479.04,0.0,0.0
10:11:26,-1132527.617,0.0,0.0
10:11:26,-1138163.713,0.0,0.0
10:11:26,-1131741.184,0.0,0.0
10:11:26,-1131085.825,0.0,0.0
10:11:26,-1136197.633,0.0,0.0
10:11:27,-1131544.577,0.0,0.0
10:11:27,-1132855.297,0.0,0.0
10:11:27,-1137311.745,0.0,0.0
10:11:27,-1131413.505,0.0,0.0
10:11:27,-1130627.073,0.0,0.0
10:11:27,-1136852.993,0.0,0.0
10:11:27,-1132199.939,0.0,0.0
10:11:27,-1133051.908,0.0,0.0
10:11:27,-1140260.87,0.0,0.0
10:11:27,-1132265.478,0.0,0.0
10:11:27,-1133379.591,0.0,0.0
10:11:27,-1135345.673,0.0,0.0
10:11:27,-1129644.041,0.0,0.0
10:11:27,-1131610.122,0.0,0.0
10:11:27,-1137508.362,0.0,0.0
10:11:27,-1131610.121,0.0,0.0
10:11:27,-1130627.081,0.0,0.0
10:11:27,-1136656.392,0.0,0.0
10:11:27,-1130561.542,0.0,0.0
10:11:27,-1131282.437,0.0,0.0
10:11:27,-1137180.675,0.0,0.0
10:11:27,-1131085.826,0.0,0.0
10:11:27,-1132986.368,0.0,0.0
10:11:27,-1138032.639,0.0,0.0
10:11:27,-1131282.43,0.0,0.0
10:11:27,-1132920.829,0.0,0.0
10:11:27,-1135017.981,0.0,0.0
10:11:27,-1130299.39,0.0,0.0
10:11:27,-1133379.582,0.0,0.0
10:11:27,-1136263.167,0.0,0.0
10:11:27,-1131085.822,0.0,0.0
10:11:27,-1133117.439,0.0,0.0
10:11:27,-1137180.671,0.0,0.0
10:11:27,-1131085.824,0.0,0.0
10:11:27,-1134100.479,0.0,0.0
10:11:27,-1138360.319,0.0,0.0
10:11:27,-1130627.072,0.0,0.0
10:11:27,-1135280.128,0.0,0.0
10:11:27,-1139146.753,0.0,0.0
10:11:27,-1132003.329,0.0,0.0
10:11:27,-1134100.48,0.0,0.0
10:11:27,-1136132.097,0.0,0.0
10:11:27,-1129447.425,0.0,0.0
10:11:27,-1133576.193,0.0,0.0
10:11:27,-1136263.168,0.0,0.0
10:11:27,-1130561.537,0.0,0.0
10:11:27,-1134231.553,0.0,0.0
10:11:27,-1139212.288,0.0,0.0
10:11:27,-1131806.721,0.0,0.0
10:11:27,-1133379.584,0.0,0.0
10:11:27,-1137377.28,0.0,0.0
10:11:27,-1132068.865,0.0,0.0
10:11:27,-1136852.993,0.0,0.0
10:11:27,-1139998.721,0.0,0.0
10:11:27,-1132724.225,0.0,0.0
10:11:27,-1135214.595,0.0,0.0
10:11:27,-1139605.508,0.0,0.0
10:11:27,-1133051.908,0.0,0.0
10:11:27,-1136852.998,0.0,0.0
10:11:27,-1137704.965,0.0,0.0
10:11:27,-1130168.325,0.0,0.0
10:11:27,-1134690.307,0.0,0.0
10:11:27,-1137246.21,0.0,0.0
10:11:27,-1130823.679,0.0,0.0
10:11:27,-1136787.454,0.0,0.0
10:11:27,-1139015.679,0.0,0.0
10:11:27,-1132593.151,0.0,0.0
10:11:27,-1139802.112,0.0,0.0
10:11:27,-1140981.759,0.0,0.0
10:11:27,-1133510.656,0.0,0.0
10:11:27,-1137770.496,0.0,0.0
10:11:27,-1140391.937,0.0,0.0
10:11:27,-1134559.232,0.0,0.0
10:11:27,-1138688.0,0.0,0.0
10:11:27,-1141309.439,0.0,0.0
10:11:27,-1134100.477,0.0,0.0
10:11:27,-1137180.675,0.0,0.0
10:11:27,-1140129.813,0.0,0.0
10:11:27,-1131872.291,0.0,0.0
10:11:27,-1138753.567,0.0,0.0
10:11:27,-1142882.318,0.0,0.0
10:11:27,-1135607.809,0.0,0.0
10:11:27,-1140785.149,0.0,0.0
10:11:27,-1143144.447,0.0,0.0
10:11:27,-1135214.592,0.0,0.0
10:11:27,-1140064.257,0.0,0.0
10:11:27,-1139736.577,0.0,0.0
10:11:27,-1134362.624,0.0,0.0
10:11:27,-1141374.976,0.0,0.0
10:11:27,-1139277.825,0.0,0.0
10:11:27,-1136525.313,0.0,0.0
10:11:27,-1142226.945,0.0,0.0
10:11:27,-1140457.472,0.0,0.0
10:11:27,-1135607.809,0.0,0.0
10:11:27,-1142685.697,0.0,0.0
10:11:27,-1144127.488,0.0,0.0
10:11:27,-1138229.249,0.0,0.0
10:11:27,-1143275.52,0.0,0.0
10:11:27,-1141768.192,0.0,0.0
10:11:27,-1137246.21,0.0,0.0
10:11:27,-1143472.131,0.0,0.0
10:11:27,-1142030.341,0.0,0.0
10:11:27,-1138491.397,0.0,0.0
10:11:27,-1142423.558,0.0,0.0
10:11:27,-1142554.632,0.0,0.0
10:11:27,-1139736.585,0.0,0.0
10:11:27,-1146814.473,0.0,0.0
10:11:27,-1146552.33,0.0,0.0
10:11:27,-1139081.226,0.0,0.0
10:11:27,-1147600.905,0.0,0.0
10:11:27,-1146290.185,0.0,0.0
10:11:27,-1139933.192,0.0,0.0
10:11:27,-1147797.51,0.0,0.0
10:11:27,-1145176.069,0.0,0.0
10:11:27,-1139474.435,0.0,0.0
10:11:27,-1146093.569,0.0,0.0
10:11:27,-1144324.096,0.0,0.0
10:11:27,-1140916.222,0.0,0.0
10:11:27,-1148452.862,0.0,0.0
10:11:27,-1143734.27,0.0,0.0
10:11:27,-1141768.19,0.0,0.0
10:11:27,-1148715.005,0.0,0.0
10:11:27,-1146486.782,0.0,0.0
10:11:28,-1143996.414,0.0,0.0
10:11:28,-1150156.799,0.0,0.0
10:11:28,-1148059.646,0.0,0.0
10:11:28,-1145438.207,0.0,0.0
10:11:28,-1152647.167,0.0,0.0
10:11:28,-1148715.008,0.0,0.0
10:11:28,-1144913.92,0.0,0.0
10:11:28,-1152909.312,0.0,0.0
10:11:28,-1149566.977,0.0,0.0
10:11:28,-1146093.568,0.0,0.0
10:11:28,-1151729.664,0.0,0.0
10:11:28,-1146421.249,0.0,0.0
10:11:28,-1143996.417,0.0,0.0
10:11:28,-1151926.272,0.0,0.0
10:11:28,-1149239.297,0.0,0.0
10:11:28,-1148321.793,0.0,0.0
10:11:28,-1153433.6,0.0,0.0
10:11:28,-1148518.4,0.0,0.0
10:11:28,-1149370.369,0.0,0.0
10:11:28,-1157890.048,0.0,0.0
10:11:28,-1153105.92,0.0,0.0
10:11:28,-1153695.745,0.0,0.0
10:11:28,-1156513.793,0.0,0.0
10:11:28,-1150484.481,0.0,0.0
10:11:28,-1149435.904,0.0,0.0
10:11:28,-1154940.929,0.0,0.0
10:11:28,-1150025.731,0.0,0.0
10:11:28,-1151401.988,0.0,0.0
10:11:28,-1157955.589,0.0,0.0
10:11:28,-1151926.277,0.0,0.0
10:11:28,-1153564.678,0.0,0.0
10:11:28,-1158086.661,0.0,0.0
10:11:28,-1152319.49,0.0,0.0
10:11:28,-1155530.753,0.0,0.0
10:11:28,-1161494.528,0.0,0.0
10:11:28,-1154285.567,0.0,0.0
10:11:28,-1153302.528,0.0,0.0
10:11:28,-1157824.511,0.0,0.0
10:11:28,-1153892.352,0.0,0.0
10:11:28,-1157955.584,0.0,0.0
10:11:28,-1161428.993,0.0,0.0
10:11:28,-1155072.0,0.0,0.0
10:11:28,-1158742.016,0.0,0.0
10:11:28,-1160380.417,0.0,0.0
10:11:28,-1154023.424,0.0,0.0
10:11:28,-1158021.118,0.0,0.0
10:11:28,-1162149.886,0.0,0.0
10:11:28,-1156579.336,0.0,0.0
10:11:28,-1160773.657,0.0,0.0
10:11:28,-1163067.428,0.0,0.0
10:11:28,-1158283.292,0.0,0.0
10:11:28,-1162346.507,0.0,0.0
10:11:28,-1163722.751,0.0,0.0
10:11:28,-1157562.366,0.0,0.0
10:11:28,-1163329.535,0.0,0.0
10:11:28,-1164771.328,0.0,0.0
10:11:28,-1158479.873,0.0,0.0
10:11:28,-1165099.008,0.0,0.0
10:11:28,-1166606.337,0.0,0.0
10:11:28,-1161887.745,0.0,0.0
10:11:28,-1166671.872,0.0,0.0
10:11:28,-1164967.937,0.0,0.0
10:11:28,-1160511.489,0.0,0.0
10:11:28,-1166802.945,0.0,0.0
10:11:28,-1169358.848,0.0,0.0
10:11:28,-1164902.4,0.0,0.0
10:11:28,-1170538.497,0.0,0.0
10:11:28,-1167982.593,0.0,0.0
10:11:28,-1164181.505,0.0,0.0
10:11:28,-1171587.073,0.0,0.0
10:11:28,-1170407.427,0.0,0.0
10:11:28,-1165164.548,0.0,0.0
10:11:28,-1173028.868,0.0,0.0
10:11:28,-1171193.862,0.0,0.0
10:11:28,-1168244.743,0.0,0.0
10:11:28,-1173880.84,0.0,0.0
10:11:28,-1174667.272,0.0,0.0
10:11:28,-1169293.321,0.0,0.0
10:11:28,-1174208.522,0.0,0.0
10:11:28,-1174798.345,0.0,0.0
10:11:28,-1171324.937,0.0,0.0
10:11:28,-1176764.424,0.0,0.0
10:11:28,-1173422.087,0.0,0.0
10:11:28,-1169752.07,0.0,0.0
10:11:28,-1176698.884,0.0,0.0
10:11:28,-1176436.739,0.0,0.0
10:11:28,-1172635.649,0.0,0.0
10:11:28,-1178206.207,0.0,0.0
10:11:28,-1175715.839,0.0,0.0
10:11:28,-1172307.966,0.0,0.0
10:11:28,-1181483.005,0.0,0.0
10:11:28,-1179910.142,0.0,0.0
10:11:28,-1175912.446,0.0,0.0
10:11:28,-1182793.727,0.0,0.0
10:11:28,-1180893.183,0.0,0.0
10:11:28,-1177747.454,0.0,0.0
10:11:28,-1186070.527,0.0,0.0
10:11:28,-1182466.047,0.0,0.0
10:11:28,-1179779.071,0.0,0.0
10:11:28,-1185611.776,0.0,0.0
10:11:28,-1182728.192,0.0,0.0
10:11:28,-1181417.473,0.0,0.0
10:11:28,-1187512.32,0.0,0.0
10:11:28,-1181941.76,0.0,0.0
10:11:28,-1179910.144,0.0,0.0
10:11:28,-1187708.928,0.0,0.0
10:11:28,-1184301.057,0.0,0.0
10:11:28,-1183186.945,0.0,0.0
10:11:28,-1190330.369,0.0,0.0
10:11:28,-1187053.569,0.0,0.0
10:11:28,-1185153.025,0.0,0.0
10:11:28,-1190920.193,0.0,0.0
10:11:28,-1183514.625,0.0,0.0
10:11:28,-1183580.161,0.0,0.0
10:11:28,-1191575.553,0.0,0.0
10:11:28,-1185808.385,0.0,0.0
10:11:28,-1184694.273,0.0,0.0
10:11:28,-1190592.513,0.0,0.0
10:11:28,-1184825.345,0.0,0.0
10:11:28,-1185153.025,0.0,0.0
10:11:28,-1191378.947,0.0,0.0
10:11:28,-1183514.628,0.0,0.0
10:11:28,-1184759.813,0.0,0.0
10:11:28,-1191247.878,0.0,0.0
10:11:28,-1186988.037,0.0,0.0
10:11:29,-1186594.82,0.0,0.0
10:11:29,-1192493.059,0.0,0.0
10:11:29,-1186463.744,0.0,0.0
10:11:29,-1185349.631,0.0,0.0
10:11:29,-1191641.088,0.0,0.0
10:11:29,-1186201.599,0.0,0.0
10:11:29,-1186136.063,0.0,0.0
10:11:29,-1188954.112,0.0,0.0
10:11:29,-1184432.128,0.0,0.0
10:11:29,-1187381.249,0.0,0.0
10:11:29,-1190789.121,0.0,0.0
10:11:29,-1183973.376,0.0,0.0
10:11:29,-1187250.176,0.0,0.0
10:11:29,-1191903.232,0.0,0.0
10:11:29,-1184694.269,0.0,0.0
10:11:29,-1187381.247,0.0,0.0
10:11:29,-1192493.069,0.0,0.0
10:11:29,-1185939.486,0.0,0.0
10:11:29,-1186398.243,0.0,0.0
10:11:29,-1188298.775,0.0,0.0
10:11:29,-1183842.31,0.0,0.0
10:11:29,-1188233.215,0.0,0.0
10:11:29,-1189543.935,0.0,0.0
10:11:29,-1182924.8,0.0,0.0
10:11:29,-1186594.817,0.0,0.0
10:11:29,-1190920.192,0.0,0.0
10:11:29,-1184694.272,0.0,0.0
10:11:29,-1188233.217,0.0,0.0
10:11:29,-1188102.145,0.0,0.0
10:11:29,-1183121.408,0.0,0.0
10:11:29,-1187250.176,0.0,0.0
10:11:29,-1187577.857,0.0,0.0
10:11:29,-1181876.225,0.0,0.0
10:11:29,-1186856.961,0.0,0.0
10:11:29,-1187774.465,0.0,0.0
10:11:29,-1179713.537,0.0,0.0
10:11:29,-1184825.345,0.0,0.0
10:11:29,-1184301.057,0.0,0.0
10:11:29,-1179123.714,0.0,0.0
10:11:29,-1185153.026,0.0,0.0
10:11:29,-1184169.987,0.0,0.0
10:11:29,-1179320.325,0.0,0.0
10:11:29,-1185284.102,0.0,0.0
10:11:29,-1184563.208,0.0,0.0
10:11:29,-1178861.576,0.0,0.0
10:11:29,-1182400.521,0.0,0.0
10:11:29,-1180958.729,0.0,0.0
10:11:29,-1177419.786,0.0,0.0
10:11:29,-1182597.129,0.0,0.0
10:11:29,-1179451.401,0.0,0.0
10:11:29,-1174470.663,0.0,0.0
10:11:29,-1181089.799,0.0,0.0
10:11:29,-1177092.101,0.0,0.0
10:11:29,-1170145.283,0.0,0.0
10:11:29,-1178599.426,0.0,0.0
10:11:29,-1174208.512,0.0,0.0
10:11:29,-1170604.031,0.0,0.0
10:11:29,-1176371.198,0.0,0.0
10:11:29,-1171587.069,0.0,0.0
10:11:29,-1168244.734,0.0,0.0
10:11:29,-1172307.966,0.0,0.0
10:11:29,-1166868.478,0.0,0.0
10:11:29,-1165295.615,0.0,0.0
10:11:29,-1171652.606,0.0,0.0
10:11:29,-1165230.079,0.0,0.0
10:11:29,-1164312.575,0.0,0.0
10:11:29,-1166868.48,0.0,0.0
10:11:29,-1160314.879,0.0,0.0
10:11:29,-1161232.384,0.0,0.0
10:11:29,-1167654.912,0.0,0.0
10:11:29,-1159069.697,0.0,0.0
10:11:29,-1157300.224,0.0,0.0
10:11:29,-1162018.817,0.0,0.0
10:11:29,-1154547.712,0.0,0.0
10:11:29,-1154940.928,0.0,0.0
10:11:29,-1161035.777,0.0,0.0
10:11:29,-1155268.608,0.0,0.0
10:11:29,-1154088.96,0.0,0.0
10:11:29,-1155923.969,0.0,0.0
10:11:29,-1147994.113,0.0,0.0
10:11:29,-1147600.897,0.0,0.0
10:11:29,-1154351.105,0.0,0.0
10:11:29,-1144389.633,0.0,0.0
10:11:29,-1146683.393,0.0,0.0
10:11:29,-1154023.425,0.0,0.0
10:11:29,-1145896.961,0.0,0.0
10:11:29,-1148583.937,0.0,0.0
10:11:29,-1150156.801,0.0,0.0
10:11:29,-1141112.834,0.0,0.0
10:11:29,-1142816.771,0.0,0.0
10:11:29,-1145634.821,0.0,0.0
10:11:29,-1138688.005,0.0,0.0
10:11:29,-1142292.485,0.0,0.0
10:11:29,-1142226.949,0.0,0.0
10:11:29,-1136328.707,0.0,0.0
10:11:29,-1141047.298,0.0,0.0
10:11:29,-1142292.48,0.0,0.0
10:11:29,-1135149.056,0.0,0.0
10:11:29,-1139539.967,0.0,0.0
10:11:29,-1139671.039,0.0,0.0
10:11:29,-1132986.367,0.0,0.0
10:11:29,-1140064.256,0.0,0.0
10:11:29,-1141178.368,0.0,0.0
10:11:29,-1134231.553,0.0,0.0
10:11:29,-1139146.752,0.0,0.0
10:11:29,-1138688.0,0.0,0.0
10:11:29,-1132068.865,0.0,0.0
10:11:29,-1138425.855,0.0,0.0
10:11:29,-1136721.917,0.0,0.0
10:11:29,-1132134.402,0.0,0.0
10:11:29,-1137311.761,0.0,0.0
10:11:29,-1135018.016,0.0,0.0
10:11:29,-1130430.497,0.0,0.0
10:11:29,-1134886.93,0.0,0.0
10:11:29,-1134886.914,0.0,0.0
10:11:29,-1132331.005,0.0,0.0
10:11:29,-1138556.927,0.0,0.0
10:11:29,-1135738.88,0.0,0.0
10:11:29,-1133182.977,0.0,0.0
10:11:29,-1137508.353,0.0,0.0
10:11:29,-1132462.08,0.0,0.0
10:11:29,-1130102.784,0.0,0.0
10:11:29,-1136656.385,0.0,0.0
10:11:29,-1134559.232,0.0,0.0
10:11:29,-1132265.472,0.0,0.0
10:11:30,-1136590.849,0.0,0.0
10:11:30,-1130692.609,0.0,0.0
10:11:30,-1131151.36,0.0,0.0
10:11:30,-1138819.073,0.0,0.0
10:11:30,-1132855.297,0.0,0.0
10:11:30,-1131806.72,0.0,0.0
10:11:30,-1137639.425,0.0,0.0
10:11:30,-1133379.585,0.0,0.0
10:11:30,-1132003.331,0.0,0.0
10:11:30,-1136197.636,0.0,0.0
10:11:30,-1131610.118,0.0,0.0
10:11:30,-1132134.406,0.0,0.0
10:11:30,-1137442.823,0.0,0.0
10:11:30,-1130889.225,0.0,0.0
10:11:30,-1132593.161,0.0,0.0
10:11:30,-1138622.474,0.0,0.0
10:11:30,-1132527.626,0.0,0.0
10:11:30,-1133707.273,0.0,0.0
10:11:30,-1138819.081,0.0,0.0
10:11:30,-1131085.832,0.0,0.0
10:11:30,-1132724.23,0.0,0.0
10:11:30,-1138425.861,0.0,0.0
10:11:30,-1130627.075,0.0,0.0
10:11:30,-1134034.946,0.0,0.0
10:11:30,-1138032.64,0.0,0.0
10:11:30,-1130823.678,0.0,0.0
10:11:30,-1133576.19,0.0,0.0
10:11:30,-1134559.229,0.0,0.0
10:11:30,-1129775.101,0.0,0.0
10:11:30,-1133707.261,0.0,0.0
10:11:30,-1137377.278,0.0,0.0
10:11:30,-1132462.078,0.0,0.0
10:11:30,-1137180.671,0.0,0.0
10:11:30,-1137246.206,0.0,0.0
10:11:30,-1130823.679,0.0,0.0
10:11:30,-1134952.447,0.0,0.0
10:11:30,-1138425.856,0.0,0.0
10:11:30,-1134100.479,0.0,0.0
10:11:30,-1136852.992,0.0,0.0
10:11:30,-1135935.488,0.0,0.0
10:11:30,-1130627.072,0.0,0.0
10:11:30,-1137639.425,0.0,0.0
10:11:30,-1137180.673,0.0,0.0
10:11:30,-1130233.857,0.0,0.0
10:11:30,-1137639.425,0.0,0.0
10:11:30,-1134690.305,0.0,0.0
10:11:30,-1132068.865,0.0,0.0
10:11:30,-1140064.257,0.0,0.0
10:11:30,-1138098.177,0.0,0.0
10:11:30,-1131872.257,0.0,0.0
10:11:30,-1136394.241,0.0,0.0
10:11:30,-1135214.593,0.0,0.0
10:11:30,-1133248.513,0.0,0.0
10:11:30,-1138819.073,0.0,0.0
10:11:30,-1134690.305,0.0,0.0
10:11:30,-1132462.081,0.0,0.0
10:11:30,-1138819.073,0.0,0.0
10:11:30,-1133314.051,0.0,0.0
10:11:30,-1133445.123,0.0,0.0
10:11:30,-1139408.901,0.0,0.0
10:11:30,-1135280.134,0.0,0.0
10:11:30,-1133051.909,0.0,0.0
10:11:30,-1140588.549,0.0,0.0
10:11:30,-1134493.699,0.0,0.0
10:11:30,-1134559.234,0.0,0.0
10:11:30,-1141243.903,0.0,0.0
10:11:30,-1134297.087,0.0,0.0
10:11:30,-1136852.991,0.0,0.0
10:11:30,-1142947.84,0.0,0.0
10:11:30,-1135935.487,0.0,0.0
10:11:30,-1138229.247,0.0,0.0
10:11:30,-1139015.68,0.0,0.0
10:11:30,-1134100.48,0.0,0.0
10:11:30,-1136394.241,0.0,0.0
10:11:30,-1142030.337,0.0,0.0
10:11:30,-1135935.488,0.0,0.0
10:11:30,-1137967.103,0.0,0.0
10:11:30,-1141112.83,0.0,0.0
10:11:30,-1136066.565,0.0,0.0
10:11:30,-1140981.783,0.0,0.0
10:11:30,-1142095.908,0.0,0.0
10:11:30,-1135738.91,0.0,0.0
10:11:30,-1141047.309,0.0,0.0
10:11:30,-1141899.265,0.0,0.0
10:11:30,-1135607.806,0.0,0.0
10:11:30,-1139539.967,0.0,0.0
10:11:30,-1141768.193,0.0,0.0
10:11:30,-1135542.273,0.0,0.0
10:11:30,-1142095.873,0.0,0.0
10:11:30,-1139802.113,0.0,0.0
10:11:30,-1133182.977,0.0,0.0
10:11:30,-1140654.08,0.0,0.0
10:11:30,-1140785.152,0.0,0.0
10:11:30,-1135214.593,0.0,0.0
10:11:30,-1141440.513,0.0,0.0
10:11:30,-1141899.265,0.0,0.0
10:11:30,-1137901.568,0.0,0.0
10:11:30,-1145044.992,0.0,0.0
10:11:30,-1142030.337,0.0,0.0
10:11:30,-1137573.889,0.0,0.0
10:11:30,-1146683.393,0.0,0.0
10:11:30,-1141768.194,0.0,0.0
10:11:30,-1138556.932,0.0,0.0
10:11:30,-1144848.389,0.0,0.0
10:11:30,-1143668.741,0.0,0.0
10:11:30,-1139605.511,0.0,0.0
10:11:30,-1144979.464,0.0,0.0
10:11:30,-1140457.481,0.0,0.0
10:11:30,-1139146.761,0.0,0.0
10:11:30,-1148911.626,0.0,0.0
10:11:30,-1144324.106,0.0,0.0
10:11:30,-1141112.841,0.0,0.0
10:11:30,-1146486.793,0.0,0.0
10:11:30,-1144717.32,0.0,0.0
10:11:30,-1141768.198,0.0,0.0
10:11:30,-1147469.829,0.0,0.0
10:11:30,-1143275.523,0.0,0.0
10:11:30,-1142161.409,0.0,0.0
10:11:30,-1148190.72,0.0,0.0
10:11:30,-1142816.766,0.0,0.0
10:11:30,-1142882.302,0.0,0.0
10:11:30,-1150156.798,0.0,0.0
10:11:30,-1144913.917,0.0,0.0
10:11:30,-1145896.958,0.0,0.0
10:11:30,-1150550.014,0.0,0.0
10:11:31,-1145634.815,0.0,0.0
10:11:31,-1145438.206,0.0,0.0
10:11:31,-1151336.446,0.0,0.0
10:11:31,-1144520.703,0.0,0.0
10:11:31,-1146421.247,0.0,0.0
10:11:31,-1150812.16,0.0,0.0
10:11:31,-1142095.872,0.0,0.0
10:11:31,-1145962.496,0.0,0.0
10:11:31,-1150156.801,0.0,0.0
10:11:31,-1143996.416,0.0,0.0
10:11:31,-1148321.792,0.0,0.0
10:11:31,-1151533.057,0.0,0.0
10:11:31,-1145831.425,0.0,0.0
10:11:31,-1149239.297,0.0,0.0
10:11:31,-1151926.273,0.0,0.0
10:11:31,-1147731.969,0.0,0.0
10:11:31,-1153171.457,0.0,0.0
10:11:31,-1155727.361,0.0,0.0
10:11:31,-1149566.976,0.0,0.0
10:11:31,-1153892.352,0.0,0.0
10:11:31,-1153499.137,0.0,0.0
10:11:31,-1147600.896,0.0,0.0
10:11:31,-1153892.352,0.0,0.0
10:11:31,-1152647.169,0.0,0.0
10:11:31,-1148911.617,0.0,0.0
10:11:31,-1153302.53,0.0,0.0
10:11:31,-1154023.427,0.0,0.0
10:11:31,-1150091.268,0.0,0.0
10:11:31,-1156907.013,0.0,0.0
10:11:31,-1155989.509,0.0,0.0
10:11:31,-1150615.558,0.0,0.0
10:11:31,-1156972.548,0.0,0.0
10:11:31,-1157103.619,0.0,0.0
10:11:31,-1150091.265,0.0,0.0
10:11:31,-1157824.512,0.0,0.0
10:11:31,-1156972.543,0.0,0.0
10:11:31,-1152647.167,0.0,0.0
10:11:31,-1160380.416,0.0,0.0
10:11:31,-1155923.967,0.0,0.0
10:11:31,-1152122.88,0.0,0.0
10:11:31,-1160773.632,0.0,0.0
10:11:31,-1157431.297,0.0,0.0
10:11:31,-1155072.0,0.0,0.0
10:11:31,-1162674.177,0.0,0.0
10:11:31,-1159987.2,0.0,0.0
10:11:31,-1156317.182,0.0,0.0
10:11:31,-1162936.318,0.0,0.0
10:11:31,-1158414.345,0.0,0.0
10:11:31,-1157169.179,0.0,0.0
10:11:31,-1163984.932,0.0,0.0
10:11:31,-1160052.763,0.0,0.0
10:11:31,-1160118.281,0.0,0.0
10:11:31,-1164050.43,0.0,0.0
10:11:31,-1160183.806,0.0,0.0
10:11:31,-1160970.24,0.0,0.0
10:11:31,-1166213.12,0.0,0.0
10:11:31,-1159856.129,0.0,0.0
10:11:31,-1162084.352,0.0,0.0
10:11:31,-1169293.313,0.0,0.0
10:11:31,-1161822.209,0.0,0.0
10:11:31,-1163132.929,0.0,0.0
10:11:31,-1169620.993,0.0,0.0
10:11:31,-1163984.897,0.0,0.0
10:11:31,-1166344.193,0.0,0.0
10:11:31,-1170604.033,0.0,0.0
10:11:31,-1163460.609,0.0,0.0
10:11:31,-1166147.585,0.0,0.0
10:11:31,-1172439.041,0.0,0.0
10:11:31,-1165819.905,0.0,0.0
10:11:31,-1168506.881,0.0,0.0
10:11:31,-1172373.506,0.0,0.0
10:11:31,-1167458.308,0.0,0.0
10:11:31,-1171849.22,0.0,0.0
10:11:31,-1174601.734,0.0,0.0
10:11:31,-1169752.071,0.0,0.0
10:11:31,-1174077.448,0.0,0.0
10:11:31,-1175388.169,0.0,0.0
10:11:31,-1169555.465,0.0,0.0
10:11:31,-1172570.122,0.0,0.0
10:11:31,-1175322.633,0.0,0.0
10:11:31,-1168441.353,0.0,0.0
10:11:31,-1173880.841,0.0,0.0
10:11:31,-1177485.319,0.0,0.0
10:11:31,-1170735.11,0.0,0.0
10:11:31,-1175388.164,0.0,0.0
10:11:31,-1180434.435,0.0,0.0
10:11:31,-1173094.401,0.0,0.0
10:11:31,-1179713.535,0.0,0.0
10:11:31,-1180434.431,0.0,0.0
10:11:31,-1175977.981,0.0,0.0
10:11:31,-1181351.934,0.0,0.0
10:11:31,-1180106.75,0.0,0.0
10:11:31,-1174601.727,0.0,0.0
10:11:31,-1180106.75,0.0,0.0
10:11:31,-1181941.759,0.0,0.0
10:11:31,-1178533.887,0.0,0.0
10:11:31,-1183121.408,0.0,0.0
10:11:31,-1185218.559,0.0,0.0
10:11:31,-1180434.432,0.0,0.0
10:11:31,-1185021.952,0.0,0.0
10:11:31,-1182793.729,0.0,0.0
10:11:31,-1178796.033,0.0,0.0
10:11:31,-1188429.824,0.0,0.0
10:11:31,-1185021.953,0.0,0.0
10:11:31,-1182400.513,0.0,0.0
10:11:31,-1187184.64,0.0,0.0
10:11:31,-1186004.992,0.0,0.0
10:11:31,-1182859.265,0.0,0.0
10:11:31,-1188495.36,0.0,0.0
10:11:31,-1185677.312,0.0,0.0
10:11:31,-1183514.625,0.0,0.0
10:11:31,-1188757.505,0.0,0.0
10:11:31,-1184628.737,0.0,0.0
10:11:31,-1182466.049,0.0,0.0
10:11:31,-1189871.617,0.0,0.0
10:11:31,-1187577.857,0.0,0.0
10:11:31,-1186922.497,0.0,0.0
10:11:31,-1191247.872,0.0,0.0
10:11:31,-1185480.705,0.0,0.0
10:11:31,-1186070.53,0.0,0.0
10:11:31,-1192886.275,0.0,0.0
10:11:31,-1186791.429,0.0,0.0
10:11:31,-1184301.061,0.0,0.0
10:11:31,-1190526.982,0.0,0.0
10:11:31,-1185349.637,0.0,0.0
10:11:31,-1185349.636,0.0,0.0
10:11:32,-1192165.378,0.0,0.0
10:11:32,-1185153.025,0.0,0.0
10:11:32,-1184104.448,0.0,0.0
10:11:32,-1188167.679,0.0,0.0
10:11:32,-1184759.808,0.0,0.0
10:11:32,-1187119.103,0.0,0.0
10:11:32,-1193672.704,0.0,0.0
10:11:32,-1187053.568,0.0,0.0
10:11:32,-1186398.209,0.0,0.0
10:11:32,-1192296.448,0.0,0.0
10:11:32,-1187971.073,0.0,0.0
10:11:32,-1186856.961,0.0,0.0
10:11:32,-1191903.232,0.0,0.0
10:11:32,-1185021.949,0.0,0.0
10:11:32,-1185873.92,0.0,0.0
10:11:32,-1190330.383,0.0,0.0
10:11:32,-1185808.416,0.0,0.0
10:11:32,-1188954.147,0.0,0.0
10:11:32,-1191706.645,0.0,0.0
10:11:32,-1182859.269,0.0,0.0
10:11:32,-1187315.709,0.0,0.0
10:11:32,-1190920.191,0.0,0.0
10:11:32,-1183776.768,0.0,0.0
10:11:32,-1187184.641,0.0,0.0
10:11:32,-1190592.512,0.0,0.0
10:11:32,-1184497.665,0.0,0.0
10:11:32,-1187512.321,0.0,0.0
10:11:32,-1188888.577,0.0,0.0
10:11:32,-1180893.185,0.0,0.0
10:11:32,-1185808.385,0.0,0.0
10:11:32,-1185284.097,0.0,0.0
10:11:32,-1181941.761,0.0,0.0
10:11:32,-1189085.185,0.0,0.0
10:11:32,-1189806.08,0.0,0.0
10:11:32,-1182597.12,0.0,0.0
10:11:32,-1186201.6,0.0,0.0
10:11:32,-1186398.209,0.0,0.0
10:11:32,-1178402.817,0.0,0.0
10:11:32,-1184890.882,0.0,0.0
10:11:32,-1186004.996,0.0,0.0
10:11:32,-1180041.221,0.0,0.0
10:11:32,-1187643.399,0.0,0.0
10:11:32,-1182728.199,0.0,0.0
10:11:32,-1177878.536,0.0,0.0
10:11:32,-1182203.913,0.0,0.0
10:11:32,-1181024.266,0.0,0.0
10:11:32,-1175781.385,0.0,0.0
10:11:32,-1180696.585,0.0,0.0
10:11:32,-1179254.793,0.0,0.0
10:11:32,-1174994.951,0.0,0.0
10:11:32,-1182400.519,0.0,0.0
10:11:32,-1176895.493,0.0,0.0
10:11:32,-1174208.515,0.0,0.0
10:11:32,-1179844.61,0.0,0.0
10:11:32,-1174077.44,0.0,0.0
10:11:32,-1169620.991,0.0,0.0
10:11:32,-1175257.085,0.0,0.0
10:11:32,-1172045.821,0.0,0.0
10:11:32,-1168113.661,0.0,0.0
10:11:32,-1171914.75,0.0,0.0
10:11:32,-1167851.518,0.0,0.0
10:11:32,-1165885.439,0.0,0.0
10:11:32,-1171455.999,0.0,0.0
10:11:32,-1165557.759,0.0,0.0
10:11:32,-1163853.824,0.0,0.0
10:11:32,-1170604.031,0.0,0.0
10:11:32,-1163132.927,0.0,0.0
10:11:32,-1158152.192,0.0,0.0
10:11:32,-1163788.288,0.0,0.0
10:11:32,-1159200.769,0.0,0.0
10:11:32,-1158742.017,0.0,0.0
10:11:32,-1163657.217,0.0,0.0
10:11:32,-1154940.929,0.0,0.0
10:11:32,-1153761.281,0.0,0.0
10:11:32,-1156317.185,0.0,0.0
10:11:32,-1152385.025,0.0,0.0
10:11:32,-1152843.777,0.0,0.0
10:11:32,-1156448.257,0.0,0.0
10:11:32,-1150877.697,0.0,0.0
10:11:32,-1150222.337,0.0,0.0
10:11:32,-1154678.785,0.0,0.0
10:11:32,-1148977.153,0.0,0.0
10:11:32,-1147797.505,0.0,0.0
10:11:32,-1149566.977,0.0,0.0
10:11:32,-1142030.337,0.0,0.0
10:11:32,-1144520.705,0.0,0.0
10:11:32,-1149894.657,0.0,0.0
10:11:32,-1142685.699,0.0,0.0
10:11:32,-1141440.516,0.0,0.0
10:11:32,-1146880.005,0.0,0.0
10:11:32,-1140719.621,0.0,0.0
10:11:32,-1138425.862,0.0,0.0
10:11:32,-1144520.709,0.0,0.0
10:11:32,-1138950.147,0.0,0.0
10:11:32,-1140850.69,0.0,0.0
10:11:32,-1145831.424,0.0,0.0
10:11:32,-1138163.712,0.0,0.0
10:11:32,-1137246.207,0.0,0.0
10:11:32,-1143144.448,0.0,0.0
10:11:32,-1136525.311,0.0,0.0
10:11:32,-1135673.344,0.0,0.0
10:11:32,-1139671.04,0.0,0.0
10:11:32,-1132855.297,0.0,0.0
10:11:32,-1136263.168,0.0,0.0
10:11:32,-1139933.185,0.0,0.0
10:11:32,-1131479.04,0.0,0.0
10:11:32,-1136721.918,0.0,0.0
10:11:32,-1139867.645,0.0,0.0
10:11:32,-1133772.803,0.0,0.0
10:11:32,-1136459.795,0.0,0.0
10:11:32,-1138229.281,0.0,0.0
10:11:32,-1132855.328,0.0,0.0
10:11:32,-1136001.04,0.0,0.0
10:11:32,-1138622.465,0.0,0.0
10:11:32,-1131675.645,0.0,0.0
10:11:32,-1137180.67,0.0,0.0
10:11:32,-1138688.0,0.0,0.0
10:11:32,-1132462.08,0.0,0.0
10:11:32,-1134493.697,0.0,0.0
10:11:32,-1136459.777,0.0,0.0
10:11:32,-1131479.04,0.0,0.0
10:11:32,-1137704.96,0.0,0.0
10:11:32,-1136001.025,0.0,0.0
10:11:32,-1130954.753,0.0,0.0
10:11:32,-1135869.953,0.0,0.0
10:11:33,-1136001.025,0.0,0.0
10:11:33,-1130889.217,0.0,0.0
10:11:33,-1134690.305,0.0,0.0
10:11:33,-1134755.841,0.0,0.0
10:11:33,-1129185.281,0.0,0.0
10:11:33,-1136721.921,0.0,0.0
10:11:33,-1136001.026,0.0,0.0
10:11:33,-1131282.435,0.0,0.0
10:11:33,-1135542.276,0.0,0.0
10:11:33,-1134231.558,0.0,0.0
10:11:33,-1129447.43,0.0,0.0
10:11:33,-1135542.279,0.0,0.0
10:11:33,-1135345.673,0.0,0.0
10:11:33,-1132855.305,0.0,0.0
10:11:33,-1137836.042,0.0,0.0
10:11:33,-1133314.058,0.0,0.0
10:11:33,-1130627.081,0.0,0.0
10:11:33,-1136918.537,0.0,0.0
10:11:33,-1134559.24,0.0,0.0
10:11:33,-1129578.502,0.0,0.0
10:11:33,-1133772.805,0.0,0.0
10:11:33,-1133248.515,0.0,0.0
10:11:33,-1129775.106,0.0,0.0
10:11:33,-1137246.208,0.0,0.0
10:11:33,-1133903.87,0.0,0.0
10:11:33,-1131675.646,0.0,0.0
10:11:33,-1136001.021,0.0,0.0
10:11:33,-1133248.509,0.0,0.0
10:11:33,-1132134.398,0.0,0.0
10:11:33,-1140195.326,0.0,0.0
10:11:33,-1134559.231,0.0,0.0
10:11:33,-1131610.11,0.0,0.0
10:11:33,-1139474.431,0.0,0.0
10:11:33,-1134362.623,0.0,0.0
10:11:33,-1131741.184,0.0,0.0
10:11:33,-1138950.143,0.0,0.0
10:11:33,-1135738.88,0.0,0.0
10:11:33,-1131806.72,0.0,0.0
10:11:33,-1137311.745,0.0,0.0
10:11:33,-1134362.624,0.0,0.0
10:11:33,-1133248.513,0.0,0.0
10:11:33,-1139277.825,0.0,0.0
10:11:33,-1134034.945,0.0,0.0
10:11:33,-1133772.801,0.0,0.0
10:11:33,-1140129.793,0.0,0.0
10:11:33,-1134362.625,0.0,0.0
10:11:33,-1133117.441,0.0,0.0
10:11:33,-1137967.105,0.0,0.0
10:11:33,-1134297.089,0.0,0.0
10:11:33,-1134034.945,0.0,0.0
10:11:33,-1139605.505,0.0,0.0
10:11:33,-1133576.192,0.0,0.0
10:11:33,-1134690.305,0.0,0.0
10:11:33,-1141440.513,0.0,0.0
10:11:33,-1134166.017,0.0,0.0
10:11:33,-1135280.129,0.0,0.0
10:11:33,-1140260.867,0.0,0.0
10:11:33,-1131937.795,0.0,0.0
10:11:33,-1133903.876,0.0,0.0
10:11:33,-1140260.87,0.0,0.0
10:11:33,-1135869.958,0.0,0.0
10:11:33,-1135411.204,0.0,0.0
10:11:33,-1139343.363,0.0,0.0
10:11:33,-1133510.657,0.0,0.0
10:11:33,-1135804.415,0.0,0.0
10:11:33,-1141047.295,0.0,0.0
10:11:33,-1137573.887,0.0,0.0
10:11:33,-1137442.816,0.0,0.0
10:11:33,-1139867.647,0.0,0.0
10:11:33,-1132527.616,0.0,0.0
10:11:33,-1136525.312,0.0,0.0
10:11:33,-1138884.609,0.0,0.0
10:11:33,-1133903.872,0.0,0.0
10:11:33,-1141506.049,0.0,0.0
10:11:33,-1141768.192,0.0,0.0
10:11:33,-1134493.694,0.0,0.0
10:11:33,-1140654.077,0.0,0.0
10:11:33,-1140719.623,0.0,0.0
10:11:33,-1135542.297,0.0,0.0
10:11:33,-1138622.5,0.0,0.0
10:11:33,-1138819.101,0.0,0.0
10:11:33,-1134690.315,0.0,0.0
10:11:33,-1138425.855,0.0,0.0
10:11:33,-1138753.534,0.0,0.0
10:11:33,-1134755.84,0.0,0.0
10:11:33,-1139998.72,0.0,0.0
10:11:33,-1141178.368,0.0,0.0
10:11:33,-1135149.057,0.0,0.0
10:11:33,-1142423.553,0.0,0.0
10:11:33,-1141833.729,0.0,0.0
10:11:33,-1135149.057,0.0,0.0
10:11:33,-1142030.337,0.0,0.0
10:11:33,-1139998.721,0.0,0.0
10:11:33,-1134559.233,0.0,0.0
10:11:33,-1141571.585,0.0,0.0
10:11:33,-1141047.297,0.0,0.0
10:11:33,-1138622.465,0.0,0.0
10:11:33,-1145438.209,0.0,0.0
10:11:33,-1140260.865,0.0,0.0
10:11:33,-1137246.209,0.0,0.0
10:11:33,-1143537.666,0.0,0.0
10:11:33,-1140850.691,0.0,0.0
10:11:33,-1138425.861,0.0,0.0
10:11:33,-1146880.005,0.0,0.0
10:11:33,-1143996.423,0.0,0.0
10:11:33,-1141506.056,0.0,0.0
10:11:33,-1146355.72,0.0,0.0
10:11:33,-1142489.097,0.0,0.0
10:11:33,-1140457.482,0.0,0.0
10:11:33,-1145307.145,0.0,0.0
10:11:33,-1143275.529,0.0,0.0
10:11:33,-1142554.632,0.0,0.0
10:11:33,-1147469.831,0.0,0.0
10:11:33,-1143144.453,0.0,0.0
10:11:33,-1143865.348,0.0,0.0
10:11:33,-1149632.515,0.0,0.0
10:11:33,-1143537.665,0.0,0.0
10:11:33,-1144782.847,0.0,0.0
10:11:33,-1149566.974,0.0,0.0
10:11:33,-1143472.126,0.0,0.0
10:11:33,-1144782.845,0.0,0.0
10:11:33,-1150025.726,0.0,0.0
10:11:33,-1141768.19,0.0,0.0
10:11:33,-1144324.095,0.0,0.0
10:11:34,-1148649.47,0.0,0.0
10:11:34,-1142816.767,0.0,0.0
10:11:34,-1146421.247,0.0,0.0
10:11:34,-1150812.16,0.0,0.0
10:11:34,-1143865.343,0.0,0.0
10:11:34,-1148583.936,0.0,0.0
10:11:34,-1150681.088,0.0,0.0
10:11:34,-1146355.712,0.0,0.0
10:11:34,-1147273.217,0.0,0.0
10:11:34,-1150943.233,0.0,0.0
10:11:34,-1146552.321,0.0,0.0
10:11:34,-1150943.232,0.0,0.0
10:11:34,-1152385.025,0.0,0.0
10:11:34,-1144848.385,0.0,0.0
10:11:34,-1149960.192,0.0,0.0
10:11:34,-1152581.633,0.0,0.0
10:11:34,-1146355.713,0.0,0.0
10:11:34,-1151598.592,0.0,0.0
10:11:34,-1152909.313,0.0,0.0
10:11:34,-1147666.433,0.0,0.0
10:11:34,-1153499.137,0.0,0.0
10:11:34,-1152843.776,0.0,0.0
10:11:34,-1149435.904,0.0,0.0
10:11:34,-1156513.793,0.0,0.0
10:11:34,-1154875.393,0.0,0.0
10:11:34,-1150156.802,0.0,0.0
10:11:34,-1156251.651,0.0,0.0
10:11:34,-1154875.396,0.0,0.0
10:11:34,-1149370.374,0.0,0.0
10:11:34,-1155530.758,0.0,0.0
10:11:34,-1155596.293,0.0,0.0
10:11:34,-1150287.876,0.0,0.0
10:11:34,-1157431.298,0.0,0.0
10:11:34,-1153040.385,0.0,0.0
10:11:34,-1151139.84,0.0,0.0
10:11:34,-1159921.663,0.0,0.0
10:11:34,-1154613.248,0.0,0.0
10:11:34,-1153105.919,0.0,0.0
10:11:34,-1160642.56,0.0,0.0
10:11:34,-1158807.552,0.0,0.0
10:11:34,-1155989.505,0.0,0.0
10:11:34,-1161166.848,0.0,0.0
10:11:34,-1157300.224,0.0,0.0
10:11:34,-1155203.073,0.0,0.0
10:11:34,-1161625.6,0.0,0.0
10:11:34,-1158152.19,0.0,0.0
10:11:34,-1156907.007,0.0,0.0
10:11:34,-1162346.507,0.0,0.0
10:11:34,-1159725.084,0.0,0.0
10:11:34,-1160249.379,0.0,0.0
10:11:34,-1166868.505,0.0,0.0
10:11:34,-1161035.784,0.0,0.0
10:11:34,-1160445.95,0.0,0.0
10:11:34,-1165230.078,0.0,0.0
10:11:34,-1160249.345,0.0,0.0
10:11:34,-1160970.241,0.0,0.0
10:11:34,-1165688.833,0.0,0.0
10:11:34,-1159331.84,0.0,0.0
10:11:34,-1161560.065,0.0,0.0
10:11:34,-1168834.561,0.0,0.0
10:11:34,-1161822.209,0.0,0.0
10:11:34,-1164705.793,0.0,0.0
10:11:34,-1169096.705,0.0,0.0
10:11:34,-1162280.961,0.0,0.0
10:11:34,-1166999.552,0.0,0.0
10:11:34,-1172897.792,0.0,0.0
10:11:34,-1166213.121,0.0,0.0
10:11:34,-1170014.208,0.0,0.0
10:11:34,-1172111.361,0.0,0.0
10:11:34,-1165033.473,0.0,0.0
10:11:34,-1170931.715,0.0,0.0
10:11:34,-1173553.155,0.0,0.0
10:11:34,-1167261.7,0.0,0.0
10:11:34,-1170145.286,0.0,0.0
10:11:34,-1174994.951,0.0,0.0
10:11:34,-1167589.384,0.0,0.0
10:11:34,-1170145.289,0.0,0.0
10:11:34,-1174274.057,0.0,0.0
10:11:34,-1170014.218,0.0,0.0
10:11:34,-1176305.674,0.0,0.0
10:11:34,-1177092.104,0.0,0.0
10:11:34,-1172373.511,0.0,0.0
10:11:34,-1177812.999,0.0,0.0
10:11:34,-1177616.389,0.0,0.0
10:11:34,-1172635.651,0.0,0.0
10:11:34,-1180237.826,0.0,0.0
10:11:34,-1180499.968,0.0,0.0
10:11:34,-1174077.439,0.0,0.0
10:11:34,-1179910.142,0.0,0.0
10:11:34,-1178730.493,0.0,0.0
10:11:34,-1174929.406,0.0,0.0
10:11:34,-1181220.862,0.0,0.0
10:11:34,-1179910.142,0.0,0.0
10:11:34,-1176174.591,0.0,0.0
10:11:34,-1184432.127,0.0,0.0
10:11:34,-1180762.11,0.0,0.0
10:11:34,-1176764.415,0.0,0.0
10:11:34,-1186004.991,0.0,0.0
10:11:34,-1183907.839,0.0,0.0
10:11:34,-1179320.32,0.0,0.0
10:11:34,-1185349.632,0.0,0.0
10:11:34,-1182597.121,0.0,0.0
10:11:34,-1181614.08,0.0,0.0
10:11:34,-1187119.105,0.0,0.0
10:11:34,-1184301.056,0.0,0.0
10:11:34,-1181614.08,0.0,0.0
10:11:34,-1188954.113,0.0,0.0
10:11:34,-1184694.273,0.0,0.0
10:11:34,-1181548.545,0.0,0.0
10:11:34,-1187446.785,0.0,0.0
10:11:34,-1183842.305,0.0,0.0
10:11:34,-1184235.52,0.0,0.0
10:11:34,-1191968.768,0.0,0.0
10:11:34,-1185546.241,0.0,0.0
10:11:34,-1184825.344,0.0,0.0
10:11:34,-1189412.864,0.0,0.0
10:11:34,-1183842.305,0.0,0.0
10:11:34,-1184628.737,0.0,0.0
10:11:34,-1191575.553,0.0,0.0
10:11:34,-1184235.522,0.0,0.0
10:11:34,-1185742.852,0.0,0.0
10:11:34,-1190920.197,0.0,0.0
10:11:34,-1186201.605,0.0,0.0
10:11:34,-1187381.254,0.0,0.0
10:11:34,-1193148.421,0.0,0.0
10:11:34,-1186988.036,0.0,0.0
10:11:35,-1188954.114,0.0,0.0
10:11:35,-1191903.233,0.0,0.0
10:11:35,-1183514.624,0.0,0.0
10:11:35,-1186660.351,0.0,0.0
10:11:35,-1191313.407,0.0,0.0
10:11:35,-1185742.848,0.0,0.0
10:11:35,-1189347.328,0.0,0.0
10:11:35,-1191444.481,0.0,0.0
10:11:35,-1186463.745,0.0,0.0
10:11:35,-1190526.976,0.0,0.0
10:11:35,-1191116.801,0.0,0.0
10:11:35,-1185284.097,0.0,0.0
10:11:35,-1189150.719,0.0,0.0
10:11:35,-1190068.221,0.0,0.0
10:11:35,-1182662.657,0.0,0.0
10:11:35,-1189412.88,0.0,0.0
10:11:35,-1191641.121,0.0,0.0
10:11:35,-1183645.73,0.0,0.0
10:11:35,-1189937.17,0.0,0.0
10:11:35,-1187250.178,0.0,0.0
10:11:35,-1182597.117,0.0,0.0
10:11:35,-1189019.646,0.0,0.0
10:11:35,-1187184.639,0.0,0.0
10:11:35,-1181417.472,0.0,0.0
10:11:35,-1188495.361,0.0,0.0
10:11:35,-1187643.392,0.0,0.0
10:11:35,-1182466.048,0.0,0.0
10:11:35,-1187971.073,0.0,0.0
10:11:35,-1186856.961,0.0,0.0
10:11:35,-1183580.161,0.0,0.0
10:11:35,-1188626.432,0.0,0.0
10:11:35,-1183449.088,0.0,0.0
10:11:35,-1183383.553,0.0,0.0
10:11:35,-1191837.696,0.0,0.0
10:11:35,-1183776.768,0.0,0.0
10:11:35,-1181417.473,0.0,0.0
10:11:35,-1187184.641,0.0,0.0
10:11:35,-1181745.154,0.0,0.0
10:11:35,-1180893.186,0.0,0.0
10:11:35,-1190068.227,0.0,0.0
10:11:35,-1184169.989,0.0,0.0
10:11:35,-1182728.198,0.0,0.0
10:11:35,-1186660.36,0.0,0.0
10:11:35,-1179582.472,0.0,0.0
10:11:35,-1179058.185,0.0,0.0
10:11:35,-1184104.457,0.0,0.0
10:11:35,-1179058.185,0.0,0.0
10:11:35,-1179123.721,0.0,0.0
10:11:35,-1179713.544,0.0,0.0
10:11:35,-1175584.776,0.0,0.0
10:11:35,-1178468.358,0.0,0.0
10:11:35,-1178075.14,0.0,0.0
10:11:35,-1171521.539,0.0,0.0
10:11:35,-1173749.761,0.0,0.0
10:11:35,-1175912.448,0.0,0.0
10:11:35,-1169686.526,0.0,0.0
10:11:35,-1172963.325,0.0,0.0
10:11:35,-1176240.125,0.0,0.0
10:11:35,-1167327.229,0.0,0.0
10:11:35,-1169162.238,0.0,0.0
10:11:35,-1170931.71,0.0,0.0
10:11:35,-1164771.326,0.0,0.0
10:11:35,-1167589.375,0.0,0.0
10:11:35,-1167917.055,0.0,0.0
10:11:35,-1162280.958,0.0,0.0
10:11:35,-1166213.119,0.0,0.0
10:11:35,-1166409.727,0.0,0.0
10:11:35,-1157562.368,0.0,0.0
10:11:35,-1162936.319,0.0,0.0
10:11:35,-1161166.848,0.0,0.0
10:11:35,-1153105.92,0.0,0.0
10:11:35,-1162739.713,0.0,0.0
10:11:35,-1161166.848,0.0,0.0
10:11:35,-1154285.568,0.0,0.0
10:11:35,-1159725.057,0.0,0.0
10:11:35,-1155596.288,0.0,0.0
10:11:35,-1150681.088,0.0,0.0
10:11:35,-1157562.369,0.0,0.0
10:11:35,-1152778.241,0.0,0.0
10:11:35,-1147863.041,0.0,0.0
10:11:35,-1154416.64,0.0,0.0
10:11:35,-1147797.504,0.0,0.0
10:11:35,-1144586.241,0.0,0.0
10:11:35,-1151860.737,0.0,0.0
10:11:35,-1147011.072,0.0,0.0
10:11:35,-1144324.097,0.0,0.0
10:11:35,-1148977.153,0.0,0.0
10:11:35,-1142095.875,0.0,0.0
10:11:35,-1143406.595,0.0,0.0
10:11:35,-1147600.901,0.0,0.0
10:11:35,-1140916.229,0.0,0.0
10:11:35,-1143734.277,0.0,0.0
10:11:35,-1145962.501,0.0,0.0
10:11:35,-1140654.083,0.0,0.0
10:11:35,-1139671.041,0.0,0.0
10:11:35,-1140326.4,0.0,0.0
10:11:35,-1135935.487,0.0,0.0
10:11:35,-1141178.368,0.0,0.0
10:11:35,-1143996.416,0.0,0.0
10:11:35,-1136066.559,0.0,0.0
10:11:35,-1139867.648,0.0,0.0
10:11:35,-1141833.728,0.0,0.0
10:11:35,-1134559.233,0.0,0.0
10:11:35,-1140850.688,0.0,0.0
10:11:35,-1140326.401,0.0,0.0
10:11:35,-1133314.049,0.0,0.0
10:11:35,-1138819.07,0.0,0.0
10:11:35,-1137180.669,0.0,0.0
10:11:35,-1132920.837,0.0,0.0
10:11:35,-1137246.229,0.0,0.0
10:11:35,-1136918.562,0.0,0.0
10:11:35,-1133445.151,0.0,0.0
10:11:35,-1138622.479,0.0,0.0
10:11:35,-1136787.457,0.0,0.0
10:11:35,-1130692.605,0.0,0.0
10:11:35,-1136263.168,0.0,0.0
10:11:35,-1135869.953,0.0,0.0
10:11:35,-1132134.4,0.0,0.0
10:11:35,-1137377.281,0.0,0.0
10:11:35,-1134297.088,0.0,0.0
10:11:35,-1131806.721,0.0,0.0
10:11:35,-1138229.249,0.0,0.0
10:11:35,-1132199.937,0.0,0.0
10:11:35,-1130954.752,0.0,0.0
10:11:35,-1136328.705,0.0,0.0
10:11:36,-1130627.073,0.0,0.0
10:11:36,-1130823.68,0.0,0.0
10:11:36,-1136852.993,0.0,0.0
10:11:36,-1132199.937,0.0,0.0
10:11:36,-1131479.041,0.0,0.0
10:11:36,-1136984.065,0.0,0.0
10:11:36,-1131282.434,0.0,0.0
10:11:36,-1131413.508,0.0,0.0
10:11:36,-1137770.5,0.0,0.0
10:11:36,-1130954.757,0.0,0.0
10:11:36,-1133707.271,0.0,0.0
10:11:36,-1136918.535,0.0,0.0
10:11:36,-1131610.121,0.0,0.0
10:11:36,-1134493.705,0.0,0.0
10:11:36,-1138229.258,0.0,0.0
10:11:36,-1131151.37,0.0,0.0
10:11:36,-1133707.273,0.0,0.0
10:11:36,-1134690.313,0.0,0.0
10:11:36,-1128202.248,0.0,0.0
10:11:36,-1135083.526,0.0,0.0
10:11:36,-1136197.637,0.0,0.0
10:11:36,-1129119.747,0.0,0.0
10:11:36,-1136197.634,0.0,0.0
10:11:36,-1138032.64,0.0,0.0
10:11:36,-1131216.894,0.0,0.0
10:11:36,-1134952.446,0.0,0.0
10:11:36,-1136263.165,0.0,0.0
10:11:36,-1130823.677,0.0,0.0
10:11:36,-1134297.086,0.0,0.0
10:11:36,-1134297.086,0.0,0.0
10:11:36,-1130168.319,0.0,0.0
10:11:36,-1135345.662,0.0,0.0
10:11:36,-1134362.623,0.0,0.0
10:11:36,-1131806.719,0.0,0.0
10:11:36,-1137246.208,0.0,0.0
10:11:36,-1136263.167,0.0,0.0
10:11:36,-1131151.36,0.0,0.0
10:11:36,-1138556.928,0.0,0.0
10:11:36,-1134690.305,0.0,0.0
10:11:36,-1130168.32,0.0,0.0
10:11:36,-1136721.921,0.0,0.0
10:11:36,-1133707.265,0.0,0.0
10:11:36,-1131085.825,0.0,0.0
10:11:36,-1138229.249,0.0,0.0
10:11:36,-1132396.545,0.0,0.0
10:11:36,-1130233.856,0.0,0.0
10:11:36,-1137115.136,0.0,0.0
10:11:36,-1132003.329,0.0,0.0
10:11:36,-1132920.833,0.0,0.0
10:11:36,-1138163.712,0.0,0.0
10:11:36,-1131347.968,0.0,0.0
10:11:36,-1132265.472,0.0,0.0
10:11:36,-1138622.465,0.0,0.0
10:11:36,-1132920.833,0.0,0.0
10:11:36,-1134034.945,0.0,0.0
10:11:36,-1138753.537,0.0,0.0
10:11:36,-1132920.834,0.0,0.0
10:11:36,-1135017.988,0.0,0.0
10:11:36,-1138753.541,0.0,0.0
10:11:36,-1131413.51,0.0,0.0
10:11:36,-1134821.382,0.0,0.0
10:11:36,-1139081.22,0.0,0.0
10:11:36,-1131937.795,0.0,0.0
10:11:36,-1135869.953,0.0,0.0
10:11:36,-1139867.648,0.0,0.0
10:11:36,-1135083.519,0.0,0.0
10:11:36,-1135935.487,0.0,0.0
10:11:36,-1139343.36,0.0,0.0
10:11:36,-1133903.871,0.0,0.0
10:11:36,-1139212.287,0.0,0.0
10:11:36,-1139933.184,0.0,0.0
10:11:36,-1135214.592,0.0,0.0
10:11:36,-1140654.08,0.0,0.0
10:11:36,-1138950.145,0.0,0.0
10:11:36,-1133445.12,0.0,0.0
10:11:36,-1138819.07,0.0,0.0
10:11:36,-1140916.222,0.0,0.0
10:11:36,-1136787.464,0.0,0.0
10:11:36,-1142554.651,0.0,0.0
10:11:36,-1138950.181,0.0,0.0
10:11:36,-1136001.051,0.0,0.0
10:11:36,-1141047.305,0.0,0.0
10:11:36,-1137901.567,0.0,0.0
10:11:36,-1136132.093,0.0,0.0
10:11:36,-1142358.015,0.0,0.0
10:11:36,-1138098.177,0.0,0.0
10:11:36,-1136263.169,0.0,0.0
10:11:36,-1141702.657,0.0,0.0
10:11:36,-1136787.456,0.0,0.0
10:11:36,-1136787.457,0.0,0.0
10:11:36,-1143013.377,0.0,0.0
10:11:36,-1138098.176,0.0,0.0
10:11:36,-1136852.993,0.0,0.0
10:11:36,-1143603.201,0.0,0.0
10:11:36,-1136918.528,0.0,0.0
10:11:36,-1139343.361,0.0,0.0
10:11:36,-1147600.897,0.0,0.0
10:11:36,-1141440.513,0.0,0.0
10:11:36,-1140850.688,0.0,0.0
10:11:36,-1145241.601,0.0,0.0
10:11:36,-1137508.355,0.0,0.0
10:11:36,-1141506.051,0.0,0.0
10:11:36,-1147011.076,0.0,0.0
10:11:36,-1139474.438,0.0,0.0
10:11:36,-1142554.631,0.0,0.0
10:11:36,-1144520.711,0.0,0.0
10:11:36,-1138032.649,0.0,0.0
10:11:36,-1140654.089,0.0,0.0
10:11:36,-1145438.218,0.0,0.0
10:11:36,-1140523.017,0.0,0.0
10:11:36,-1144520.713,0.0,0.0
10:11:36,-1145962.504,0.0,0.0
10:11:36,-1139277.831,0.0,0.0
10:11:36,-1144324.101,0.0,0.0
10:11:36,-1145176.068,0.0,0.0
10:11:36,-1140719.618,0.0,0.0
10:11:36,-1149763.585,0.0,0.0
10:11:36,-1149370.367,0.0,0.0
10:11:36,-1140260.862,0.0,0.0
10:11:36,-1146028.03,0.0,0.0
10:11:36,-1146421.245,0.0,0.0
10:11:36,-1143734.27,0.0,0.0
10:11:36,-1150156.798,0.0,0.0
10:11:36,-1147600.895,0.0,0.0
10:11:37,-1143799.806,0.0,0.0
10:11:37,-1149829.119,0.0,0.0
10:11:37,-1148715.007,0.0,0.0
10:11:37,-1146224.639,0.0,0.0
10:11:37,-1153630.208,0.0,0.0
10:11:37,-1149239.296,0.0,0.0
10:11:37,-1146028.033,0.0,0.0
10:11:37,-1151664.128,0.0,0.0
10:11:37,-1146486.785,0.0,0.0
10:11:37,-1145634.817,0.0,0.0
10:11:37,-1153040.385,0.0,0.0
10:11:37,-1147863.041,0.0,0.0
10:11:37,-1147928.577,0.0,0.0
10:11:37,-1155661.825,0.0,0.0
10:11:37,-1150287.873,0.0,0.0
10:11:37,-1150287.873,0.0,0.0
10:11:37,-1155596.289,0.0,0.0
10:11:37,-1152581.633,0.0,0.0
10:11:37,-1150877.697,0.0,0.0
10:11:37,-1155334.145,0.0,0.0
10:11:37,-1150287.873,0.0,0.0
10:11:37,-1150615.553,0.0,0.0
10:11:37,-1156579.329,0.0,0.0
10:11:37,-1150418.945,0.0,0.0
10:11:37,-1153368.065,0.0,0.0
10:11:37,-1156841.474,0.0,0.0
10:11:37,-1150222.339,0.0,0.0
10:11:37,-1152188.42,0.0,0.0
10:11:37,-1154809.862,0.0,0.0
10:11:37,-1150615.557,0.0,0.0
10:11:37,-1155203.076,0.0,0.0
10:11:37,-1158021.124,0.0,0.0
10:11:37,-1151664.13,0.0,0.0
10:11:37,-1157824.513,0.0,0.0
10:11:37,-1160773.632,0.0,0.0
10:11:37,-1153630.208,0.0,0.0
10:11:37,-1157169.151,0.0,0.0
10:11:37,-1158545.407,0.0,0.0
10:11:37,-1151926.272,0.0,0.0
10:11:37,-1158217.728,0.0,0.0
10:11:37,-1159069.697,0.0,0.0
10:11:37,-1152712.705,0.0,0.0
10:11:37,-1162018.816,0.0,0.0
10:11:37,-1160052.737,0.0,0.0
10:11:37,-1156513.792,0.0,0.0
10:11:37,-1163853.821,0.0,0.0
10:11:37,-1159856.128,0.0,0.0
10:11:37,-1155989.517,0.0,0.0
10:11:37,-1162870.814,0.0,0.0
10:11:37,-1160577.058,0.0,0.0
10:11:37,-1157431.318,0.0,0.0
10:11:37,-1164836.87,0.0,0.0
10:11:37,-1162412.029,0.0,0.0
10:11:37,-1159004.159,0.0,0.0
10:11:37,-1166344.192,0.0,0.0
10:11:37,-1162084.352,0.0,0.0
10:11:37,-1161887.745,0.0,0.0
10:11:37,-1168375.809,0.0,0.0
10:11:37,-1162149.889,0.0,0.0
10:11:37,-1162412.032,0.0,0.0
10:11:37,-1167130.625,0.0,0.0
10:11:37,-1162936.321,0.0,0.0
10:11:37,-1165557.76,0.0,0.0
10:11:37,-1169752.065,0.0,0.0
10:11:37,-1164705.792,0.0,0.0
10:11:37,-1166868.48,0.0,0.0
10:11:37,-1171259.393,0.0,0.0
10:11:37,-1165230.08,0.0,0.0
10:11:37,-1168703.489,0.0,0.0
10:11:37,-1171914.753,0.0,0.0
10:11:37,-1164509.186,0.0,0.0
10:11:37,-1167589.38,0.0,0.0
10:11:37,-1172832.261,0.0,0.0
10:11:37,-1165623.303,0.0,0.0
10:11:37,-1170800.647,0.0,0.0
10:11:37,-1174536.201,0.0,0.0
10:11:37,-1169424.393,0.0,0.0
10:11:37,-1174142.986,0.0,0.0
10:11:37,-1174994.953,0.0,0.0
10:11:37,-1169883.145,0.0,0.0
10:11:37,-1176895.497,0.0,0.0
10:11:37,-1175191.559,0.0,0.0
10:11:37,-1171521.543,0.0,0.0
10:11:37,-1176829.957,0.0,0.0
10:11:37,-1176174.595,0.0,0.0
10:11:37,-1170210.818,0.0,0.0
10:11:37,-1177550.848,0.0,0.0
10:11:37,-1178140.671,0.0,0.0
10:11:37,-1173487.614,0.0,0.0
10:11:37,-1181089.789,0.0,0.0
10:11:37,-1176961.022,0.0,0.0
10:11:37,-1174274.046,0.0,0.0
10:11:37,-1183055.871,0.0,0.0
10:11:37,-1180303.358,0.0,0.0
10:11:37,-1176961.023,0.0,0.0
10:11:37,-1185349.631,0.0,0.0
10:11:37,-1180303.36,0.0,0.0
10:11:37,-1179648.0,0.0,0.0
10:11:37,-1186660.351,0.0,0.0
10:11:37,-1181089.792,0.0,0.0
10:11:37,-1180827.648,0.0,0.0
10:11:37,-1187053.569,0.0,0.0
10:11:37,-1180827.648,0.0,0.0
10:11:37,-1181745.153,0.0,0.0
10:11:37,-1187905.537,0.0,0.0
10:11:37,-1182662.657,0.0,0.0
10:11:37,-1185415.168,0.0,0.0
10:11:37,-1190395.904,0.0,0.0
10:11:37,-1182007.297,0.0,0.0
10:11:37,-1183645.696,0.0,0.0
10:11:37,-1189806.08,0.0,0.0
10:11:37,-1184956.417,0.0,0.0
10:11:37,-1187840.001,0.0,0.0
10:11:37,-1190199.297,0.0,0.0
10:11:37,-1183318.017,0.0,0.0
10:11:37,-1186136.065,0.0,0.0
10:11:37,-1189806.081,0.0,0.0
10:11:37,-1184301.057,0.0,0.0
10:11:37,-1189150.721,0.0,0.0
10:11:37,-1191444.482,0.0,0.0
10:11:37,-1184169.988,0.0,0.0
10:11:37,-1189412.869,0.0,0.0
10:11:37,-1190395.909,0.0,0.0
10:11:37,-1185153.029,0.0,0.0
10:11:37,-1191051.269,0.0,0.0
10:11:38,-1189871.619,0.0,0.0
10:11:38,-1184038.914,0.0,0.0
10:11:38,-1189478.4,0.0,0.0
10:11:38,-1187184.64,0.0,0.0
10:11:38,-1182793.727,0.0,0.0
10:11:38,-1191378.943,0.0,0.0
10:11:38,-1186463.744,0.0,0.0
10:11:38,-1182466.048,0.0,0.0
10:11:38,-1192427.521,0.0,0.0
10:11:38,-1188429.824,0.0,0.0
10:11:38,-1184563.2,0.0,0.0
10:11:38,-1190592.513,0.0,0.0
10:11:38,-1186070.528,0.0,0.0
10:11:38,-1180958.718,0.0,0.0
10:11:38,-1188888.573,0.0,0.0
10:11:38,-1185284.098,0.0,0.0
10:11:38,-1183973.394,0.0,0.0
10:11:38,-1192034.338,0.0,0.0
10:11:38,-1185349.666,0.0,0.0
10:11:38,-1183186.961,0.0,0.0
10:11:38,-1191510.017,0.0,0.0
10:11:38,-1186398.205,0.0,0.0
10:11:38,-1185939.454,0.0,0.0
10:11:38,-1192296.448,0.0,0.0
10:11:38,-1186398.208,0.0,0.0
10:11:38,-1186463.745,0.0,0.0
10:11:38,-1191051.265,0.0,0.0
10:11:38,-1184694.273,0.0,0.0
10:11:38,-1185415.169,0.0,0.0
10:11:38,-1188888.577,0.0,0.0
10:11:38,-1179516.929,0.0,0.0
10:11:38,-1183383.553,0.0,0.0
10:11:38,-1188102.145,0.0,0.0
10:11:38,-1180499.969,0.0,0.0
10:11:38,-1185284.097,0.0,0.0
10:11:38,-1188233.217,0.0,0.0
10:11:38,-1180565.505,0.0,0.0
10:11:38,-1185021.953,0.0,0.0
10:11:38,-1185939.458,0.0,0.0
10:11:38,-1178796.035,0.0,0.0
10:11:38,-1183645.7,0.0,0.0
10:11:38,-1185808.39,0.0,0.0
10:11:38,-1179779.078,0.0,0.0
10:11:38,-1181745.159,0.0,0.0
10:11:38,-1182400.521,0.0,0.0
10:11:38,-1175388.169,0.0,0.0
10:11:38,-1181483.018,0.0,0.0
10:11:38,-1180827.658,0.0,0.0
10:11:38,-1173946.377,0.0,0.0
10:11:38,-1181286.409,0.0,0.0
10:11:38,-1181417.48,0.0,0.0
10:11:38,-1174274.054,0.0,0.0
10:11:38,-1180106.757,0.0,0.0
10:11:38,-1177419.779,0.0,0.0
10:11:38,-1171587.073,0.0,0.0
10:11:38,-1177354.24,0.0,0.0
10:11:38,-1173291.006,0.0,0.0
10:11:38,-1169948.67,0.0,0.0
10:11:38,-1176043.517,0.0,0.0
10:11:38,-1169686.526,0.0,0.0
10:11:38,-1167196.157,0.0,0.0
10:11:38,-1170669.566,0.0,0.0
10:11:38,-1167654.91,0.0,0.0
10:11:38,-1162674.175,0.0,0.0
10:11:38,-1168834.558,0.0,0.0
10:11:38,-1165557.759,0.0,0.0
10:11:38,-1162280.959,0.0,0.0
10:11:38,-1169293.311,0.0,0.0
10:11:38,-1162280.96,0.0,0.0
10:11:38,-1161101.312,0.0,0.0
10:11:38,-1164378.113,0.0,0.0
10:11:38,-1155661.825,0.0,0.0
10:11:38,-1157496.832,0.0,0.0
10:11:38,-1160249.345,0.0,0.0
10:11:38,-1152319.489,0.0,0.0
10:11:38,-1153433.601,0.0,0.0
10:11:38,-1157824.512,0.0,0.0
10:11:38,-1150156.801,0.0,0.0
10:11:38,-1150746.625,0.0,0.0
10:11:38,-1155072.0,0.0,0.0
10:11:38,-1147797.504,0.0,0.0
10:11:38,-1151860.737,0.0,0.0
10:11:38,-1153105.921,0.0,0.0
10:11:38,-1146421.249,0.0,0.0
10:11:38,-1149435.905,0.0,0.0
10:11:38,-1148977.153,0.0,0.0
10:11:38,-1141112.833,0.0,0.0
10:11:38,-1146880.001,0.0,0.0
10:11:38,-1145896.963,0.0,0.0
10:11:38,-1137770.499,0.0,0.0
10:11:38,-1143275.525,0.0,0.0
10:11:38,-1143078.918,0.0,0.0
10:11:38,-1138753.541,0.0,0.0
10:11:38,-1145176.069,0.0,0.0
10:11:38,-1141702.659,0.0,0.0
10:11:38,-1138098.177,0.0,0.0
10:11:38,-1143734.272,0.0,0.0
10:11:38,-1139605.503,0.0,0.0
10:11:38,-1134952.448,0.0,0.0
10:11:38,-1141047.296,0.0,0.0
10:11:38,-1139408.895,0.0,0.0
10:11:38,-1135083.52,0.0,0.0
10:11:38,-1141833.728,0.0,0.0
10:11:38,-1137442.817,0.0,0.0
10:11:38,-1134034.944,0.0,0.0
10:11:38,-1139933.185,0.0,0.0
10:11:38,-1135149.056,0.0,0.0
10:11:38,-1133445.118,0.0,0.0
10:11:38,-1140195.326,0.0,0.0
10:11:38,-1135345.67,0.0,0.0
10:11:38,-1135607.831,0.0,0.0
10:11:38,-1138688.035,0.0,0.0
10:11:38,-1132724.253,0.0,0.0
10:11:38,-1134034.957,0.0,0.0
10:11:38,-1138425.856,0.0,0.0
10:11:38,-1133051.902,0.0,0.0
10:11:38,-1135017.984,0.0,0.0
10:11:38,-1136328.705,0.0,0.0
10:11:38,-1131282.433,0.0,0.0
10:11:38,-1133903.873,0.0,0.0
10:11:38,-1135673.345,0.0,0.0
10:11:38,-1128333.313,0.0,0.0
10:11:38,-1135214.593,0.0,0.0
10:11:38,-1137115.137,0.0,0.0
10:11:38,-1128398.849,0.0,0.0
10:11:39,-1133903.873,0.0,0.0
10:11:39,-1137115.137,0.0,0.0
10:11:39,-1131544.576,0.0,0.0
10:11:39,-1134690.305,0.0,0.0
10:11:39,-1135804.417,0.0,0.0
10:11:39,-1129447.425,0.0,0.0
10:11:39,-1134624.769,0.0,0.0
10:11:39,-1133576.194,0.0,0.0
10:11:39,-1127284.74,0.0,0.0
10:11:39,-1133707.268,0.0,0.0
10:11:39,-1134297.093,0.0,0.0
10:11:39,-1128660.999,0.0,0.0
10:11:39,-1135345.672,0.0,0.0
10:11:39,-1133903.881,0.0,0.0
10:11:39,-1129644.041,0.0,0.0
10:11:39,-1136066.569,0.0,0.0
10:11:39,-1134166.026,0.0,0.0
10:11:39,-1130561.545,0.0,0.0
10:11:39,-1137311.753,0.0,0.0
10:11:39,-1133510.663,0.0,0.0
10:11:39,-1131151.366,0.0,0.0
10:11:39,-1135869.957,0.0,0.0
10:11:39,-1132003.33,0.0,0.0
10:11:39,-1129840.641,0.0,0.0
10:11:39,-1138294.784,0.0,0.0
10:11:39,-1132593.15,0.0,0.0
10:11:39,-1131806.718,0.0,0.0
10:11:39,-1137049.597,0.0,0.0
10:11:39,-1133248.509,0.0,0.0
10:11:39,-1134034.942,0.0,0.0
10:11:39,-1137573.886,0.0,0.0
10:11:39,-1131675.647,0.0,0.0
10:11:39,-1134559.231,0.0,0.0
10:11:39,-1138360.319,0.0,0.0
10:11:39,-1131347.968,0.0,0.0
10:11:39,-1133117.439,0.0,0.0
10:11:39,-1138098.176,0.0,0.0
10:11:39,-1131544.576,0.0,0.0
10:11:39,-1133248.513,0.0,0.0
10:11:39,-1135017.984,0.0,0.0
10:11:39,-1128857.6,0.0,0.0
10:11:39,-1135869.953,0.0,0.0
10:11:39,-1136984.065,0.0,0.0
10:11:39,-1130889.217,0.0,0.0
10:11:39,-1134821.377,0.0,0.0
10:11:39,-1138425.857,0.0,0.0
10:11:39,-1130627.073,0.0,0.0
10:11:39,-1136132.097,0.0,0.0
10:11:39,-1137704.961,0.0,0.0
10:11:39,-1133314.048,0.0,0.0
10:11:39,-1136984.064,0.0,0.0
10:11:39,-1136525.313,0.0,0.0
10:11:39,-1130889.217,0.0,0.0
10:11:39,-1136459.777,0.0,0.0
10:11:39,-1137836.033,0.0,0.0
10:11:39,-1131675.649,0.0,0.0
10:11:39,-1137049.602,0.0,0.0
10:11:39,-1137311.746,0.0,0.0
10:11:39,-1133182.98,0.0,0.0
10:11:39,-1139343.365,0.0,0.0
10:11:39,-1136001.03,0.0,0.0
10:11:39,-1133707.269,0.0,0.0
10:11:39,-1140588.548,0.0,0.0
10:11:39,-1135411.203,0.0,0.0
10:11:39,-1135411.2,0.0,0.0
10:11:39,-1139736.575,0.0,0.0
10:11:39,-1134034.944,0.0,0.0
10:11:39,-1134100.479,0.0,0.0
10:11:39,-1142423.551,0.0,0.0
10:11:39,-1137246.208,0.0,0.0
10:11:39,-1136852.992,0.0,0.0
10:11:39,-1141112.833,0.0,0.0
10:11:39,-1135673.345,0.0,0.0
10:11:39,-1137180.672,0.0,0.0
10:11:39,-1140916.225,0.0,0.0
10:11:39,-1135804.416,0.0,0.0
10:11:39,-1137311.742,0.0,0.0
10:11:39,-1142620.158,0.0,0.0
10:11:39,-1136590.858,0.0,0.0
10:11:39,-1137573.917,0.0,0.0
10:11:39,-1140588.581,0.0,0.0
10:11:39,-1135476.762,0.0,0.0
10:11:39,-1139146.76,0.0,0.0
10:11:39,-1140850.687,0.0,0.0
10:11:39,-1134624.767,0.0,0.0
10:11:39,-1138688.0,0.0,0.0
10:11:39,-1141374.977,0.0,0.0
10:11:39,-1137508.353,0.0,0.0
10:11:39,-1142358.017,0.0,0.0
10:11:39,-1141899.265,0.0,0.0
10:11:39,-1136066.561,0.0,0.0
10:11:39,-1143603.201,0.0,0.0
10:11:39,-1143078.913,0.0,0.0
10:11:39,-1138032.641,0.0,0.0
10:11:39,-1144324.097,0.0,0.0
10:11:39,-1140523.009,0.0,0.0
10:11:39,-1138884.609,0.0,0.0
10:11:39,-1144848.385,0.0,0.0
10:11:39,-1141768.193,0.0,0.0
10:11:39,-1136721.921,0.0,0.0
10:11:39,-1144520.706,0.0,0.0
10:11:39,-1140916.227,0.0,0.0
10:11:39,-1140129.795,0.0,0.0
10:11:39,-1145438.212,0.0,0.0
10:11:39,-1143472.134,0.0,0.0
10:11:39,-1141374.983,0.0,0.0
10:11:39,-1146683.4,0.0,0.0
10:11:39,-1143078.92,0.0,0.0
10:11:39,-1141112.841,0.0,0.0
10:11:39,-1146421.258,0.0,0.0
10:11:39,-1140391.945,0.0,0.0
10:11:39,-1141899.272,0.0,0.0
10:11:39,-1148780.552,0.0,0.0
10:11:39,-1142161.415,0.0,0.0
10:11:39,-1140785.157,0.0,0.0
10:11:39,-1145372.676,0.0,0.0
10:11:39,-1140719.618,0.0,0.0
10:11:39,-1145110.529,0.0,0.0
10:11:39,-1148452.863,0.0,0.0
10:11:39,-1140391.933,0.0,0.0
10:11:39,-1144979.453,0.0,0.0
10:11:39,-1150353.406,0.0,0.0
10:11:39,-1144127.485,0.0,0.0
10:11:39,-1148452.862,0.0,0.0
10:11:39,-1151336.446,0.0,0.0
10:11:40,-1143209.983,0.0,0.0
10:11:40,-1148125.182,0.0,0.0
10:11:40,-1149960.191,0.0,0.0
10:11:40,-1142489.087,0.0,0.0
10:11:40,-1150681.088,0.0,0.0
10:11:40,-1153302.527,0.0,0.0
10:11:40,-1145896.96,0.0,0.0
10:11:40,-1150550.016,0.0,0.0
10:11:40,-1151139.841,0.0,0.0
10:11:40,-1145503.744,0.0,0.0
10:11:40,-1148583.937,0.0,0.0
10:11:40,-1147600.896,0.0,0.0
10:11:40,-1144717.312,0.0,0.0
10:11:40,-1150681.089,0.0,0.0
10:11:40,-1150222.337,0.0,0.0
10:11:40,-1147142.145,0.0,0.0
10:11:40,-1152253.953,0.0,0.0
10:11:40,-1150484.481,0.0,0.0
10:11:40,-1146159.105,0.0,0.0
10:11:40,-1151926.273,0.0,0.0
10:11:40,-1149435.905,0.0,0.0
10:11:40,-1147928.577,0.0,0.0
10:11:40,-1156513.793,0.0,0.0
10:11:40,-1151401.985,0.0,0.0
10:11:40,-1149566.977,0.0,0.0
10:11:40,-1156775.938,0.0,0.0
10:11:40,-1151926.275,0.0,0.0
10:11:40,-1151205.38,0.0,0.0
10:11:40,-1156448.262,0.0,0.0
10:11:40,-1151074.31,0.0,0.0
10:11:40,-1152385.029,0.0,0.0
10:11:40,-1155661.828,0.0,0.0
10:11:40,-1152385.026,0.0,0.0
10:11:40,-1152778.241,0.0,0.0
10:11:40,-1158545.408,0.0,0.0
10:11:40,-1151991.807,0.0,0.0
10:11:40,-1155530.751,0.0,0.0
10:11:40,-1161166.848,0.0,0.0
10:11:40,-1154351.104,0.0,0.0
10:11:40,-1157758.977,0.0,0.0
10:11:40,-1161101.313,0.0,0.0
10:11:40,-1155072.0,0.0,0.0
10:11:40,-1156907.008,0.0,0.0
10:11:40,-1161297.921,0.0,0.0
10:11:40,-1156317.183,0.0,0.0
10:11:40,-1162805.245,0.0,0.0
10:11:40,-1162412.033,0.0,0.0
10:11:40,-1158021.135,0.0,0.0
10:11:40,-1161953.311,0.0,0.0
10:11:40,-1161953.314,0.0,0.0
10:11:40,-1158152.212,0.0,0.0
10:11:40,-1165361.157,0.0,0.0
10:11:40,-1165099.006,0.0,0.0
10:11:40,-1159790.59,0.0,0.0
10:11:40,-1165950.977,0.0,0.0
10:11:40,-1164967.937,0.0,0.0
10:11:40,-1160380.417,0.0,0.0
10:11:40,-1167327.232,0.0,0.0
10:11:40,-1162215.425,0.0,0.0
10:11:40,-1159790.593,0.0,0.0
10:11:40,-1167917.057,0.0,0.0
10:11:40,-1164050.433,0.0,0.0
10:11:40,-1161363.457,0.0,0.0
10:11:40,-1170210.817,0.0,0.0
10:11:40,-1168179.2,0.0,0.0
10:11:40,-1166999.552,0.0,0.0
10:11:40,-1173159.937,0.0,0.0
10:11:40,-1168965.633,0.0,0.0
10:11:40,-1167785.985,0.0,0.0
10:11:40,-1171718.145,0.0,0.0
10:11:40,-1165754.37,0.0,0.0
10:11:40,-1165885.444,0.0,0.0
10:11:40,-1171390.469,0.0,0.0
10:11:40,-1167589.383,0.0,0.0
10:11:40,-1169424.391,0.0,0.0
10:11:40,-1174470.665,0.0,0.0
10:11:40,-1167327.241,0.0,0.0
10:11:40,-1171259.402,0.0,0.0
10:11:40,-1176043.53,0.0,0.0
10:11:40,-1172701.193,0.0,0.0
10:11:40,-1174863.881,0.0,0.0
10:11:40,-1177157.639,0.0,0.0
10:11:40,-1171718.151,0.0,0.0
10:11:40,-1175257.093,0.0,0.0
10:11:40,-1178796.036,0.0,0.0
10:11:40,-1172701.185,0.0,0.0
10:11:40,-1178140.672,0.0,0.0
10:11:40,-1181745.15,0.0,0.0
10:11:40,-1173422.078,0.0,0.0
10:11:40,-1178271.741,0.0,0.0
10:11:40,-1179844.605,0.0,0.0
10:11:40,-1174208.51,0.0,0.0
10:11:40,-1181483.006,0.0,0.0
10:11:40,-1182138.367,0.0,0.0
10:11:40,-1176109.054,0.0,0.0
10:11:40,-1183252.479,0.0,0.0
10:11:40,-1181614.079,0.0,0.0
10:11:40,-1177878.528,0.0,0.0
10:11:40,-1184301.055,0.0,0.0
10:11:40,-1181941.76,0.0,0.0
10:11:40,-1177944.064,0.0,0.0
10:11:40,-1185808.385,0.0,0.0
10:11:40,-1184104.448,0.0,0.0
10:11:40,-1178927.105,0.0,0.0
10:11:40,-1187053.569,0.0,0.0
10:11:40,-1183055.873,0.0,0.0
10:11:40,-1182662.657,0.0,0.0
10:11:40,-1189806.081,0.0,0.0
10:11:40,-1184694.273,0.0,0.0
10:11:40,-1182990.337,0.0,0.0
10:11:40,-1190658.049,0.0,0.0
10:11:40,-1184432.128,0.0,0.0
10:11:40,-1182007.296,0.0,0.0
10:11:40,-1190068.225,0.0,0.0
10:11:40,-1185021.952,0.0,0.0
10:11:40,-1181745.152,0.0,0.0
10:11:40,-1190395.905,0.0,0.0
10:11:40,-1185480.705,0.0,0.0
10:11:40,-1184825.346,0.0,0.0
10:11:40,-1190723.586,0.0,0.0
10:11:40,-1183973.379,0.0,0.0
10:11:40,-1185021.957,0.0,0.0
10:11:40,-1191182.341,0.0,0.0
10:11:40,-1183842.309,0.0,0.0
10:11:40,-1185611.781,0.0,0.0
10:11:41,-1190920.195,0.0,0.0
10:11:41,-1186725.89,0.0,0.0
10:11:41,-1189347.327,0.0,0.0
10:11:41,-1192427.519,0.0,0.0
10:11:41,-1185742.847,0.0,0.0
10:11:41,-1189150.72,0.0,0.0
10:11:41,-1190461.439,0.0,0.0
10:11:41,-1183580.159,0.0,0.0
10:11:41,-1188036.608,0.0,0.0
10:11:41,-1190658.048,0.0,0.0
10:11:41,-1182334.977,0.0,0.0
10:11:41,-1185808.385,0.0,0.0
10:11:41,-1189216.256,0.0,0.0
10:11:41,-1183449.087,0.0,0.0
10:11:41,-1189609.469,0.0,0.0
10:11:41,-1190789.123,0.0,0.0
10:11:41,-1183776.789,0.0,0.0
10:11:41,-1188429.859,0.0,0.0
10:11:41,-1188102.176,0.0,0.0
10:11:41,-1182990.351,0.0,0.0
10:11:41,-1189806.082,0.0,0.0
10:11:41,-1188495.357,0.0,0.0
10:11:41,-1182466.047,0.0,0.0
10:11:41,-1188954.112,0.0,0.0
10:11:41,-1186463.745,0.0,0.0
10:11:41,-1180565.504,0.0,0.0
10:11:41,-1188495.361,0.0,0.0
10:11:41,-1184694.273,0.0,0.0
10:11:41,-1182007.297,0.0,0.0
10:11:41,-1188298.753,0.0,0.0
10:11:41,-1184169.985,0.0,0.0
10:11:41,-1182203.905,0.0,0.0
10:11:41,-1189609.473,0.0,0.0
10:11:41,-1185546.241,0.0,0.0
10:11:41,-1181548.545,0.0,0.0
10:11:41,-1188626.433,0.0,0.0
10:11:41,-1183383.553,0.0,0.0
10:11:41,-1182007.297,0.0,0.0
10:11:41,-1188888.578,0.0,0.0
10:11:41,-1182072.835,0.0,0.0
10:11:41,-1182007.301,0.0,0.0
10:11:41,-1187905.542,0.0,0.0
10:11:41,-1181220.87,0.0,0.0
10:11:41,-1180434.44,0.0,0.0
10:11:41,-1186922.505,0.0,0.0
10:11:41,-1178140.681,0.0,0.0
10:11:41,-1179123.722,0.0,0.0
10:11:41,-1185284.105,0.0,0.0
10:11:41,-1176633.353,0.0,0.0
10:11:41,-1176371.208,0.0,0.0
10:11:41,-1181220.872,0.0,0.0
10:11:41,-1174470.662,0.0,0.0
10:11:41,-1174732.805,0.0,0.0
10:11:41,-1177681.923,0.0,0.0
10:11:41,-1171324.929,0.0,0.0
10:11:41,-1172701.184,0.0,0.0
10:11:41,-1173749.758,0.0,0.0
10:11:41,-1168769.022,0.0,0.0
10:11:41,-1172307.966,0.0,0.0
10:11:41,-1173946.366,0.0,0.0
10:11:41,-1167327.229,0.0,0.0
10:11:41,-1169752.062,0.0,0.0
10:11:41,-1171652.606,0.0,0.0
10:11:41,-1163788.286,0.0,0.0
10:11:41,-1166475.263,0.0,0.0
10:11:41,-1166802.943,0.0,0.0
10:11:41,-1159397.376,0.0,0.0
10:11:41,-1163722.751,0.0,0.0
10:11:41,-1163395.072,0.0,0.0
10:11:41,-1157169.152,0.0,0.0
10:11:41,-1164050.433,0.0,0.0
10:11:41,-1161560.064,0.0,0.0
10:11:41,-1154023.424,0.0,0.0
10:11:41,-1159856.129,0.0,0.0
10:11:41,-1158152.192,0.0,0.0
10:11:41,-1153236.993,0.0,0.0
10:11:41,-1156972.544,0.0,0.0
10:11:41,-1154547.712,0.0,0.0
10:11:41,-1149829.121,0.0,0.0
10:11:41,-1155530.752,0.0,0.0
10:11:41,-1151008.768,0.0,0.0
10:11:41,-1145307.137,0.0,0.0
10:11:41,-1151401.985,0.0,0.0
10:11:41,-1147273.217,0.0,0.0
10:11:41,-1143406.593,0.0,0.0
10:11:41,-1148452.865,0.0,0.0
10:11:41,-1143144.449,0.0,0.0
10:11:41,-1142685.697,0.0,0.0
10:11:41,-1148583.939,0.0,0.0
10:11:41,-1142423.556,0.0,0.0
10:11:41,-1141506.053,0.0,0.0
10:11:41,-1146814.47,0.0,0.0
10:11:41,-1140129.797,0.0,0.0
10:11:41,-1139146.757,0.0,0.0
10:11:41,-1144651.779,0.0,0.0
10:11:41,-1137573.889,0.0,0.0
10:11:41,-1137246.208,0.0,0.0
10:11:41,-1143144.447,0.0,0.0
10:11:41,-1138950.144,0.0,0.0
10:11:41,-1137246.208,0.0,0.0
10:11:41,-1140916.223,0.0,0.0
10:11:41,-1134231.552,0.0,0.0
10:11:41,-1136984.064,0.0,0.0
10:11:41,-1139802.113,0.0,0.0
10:11:41,-1134231.552,0.0,0.0
10:11:41,-1135869.953,0.0,0.0
10:11:41,-1139277.825,0.0,0.0
10:11:41,-1133576.19,0.0,0.0
10:11:41,-1135083.518,0.0,0.0
10:11:41,-1136525.319,0.0,0.0
10:11:41,-1131020.313,0.0,0.0
10:11:41,-1136197.667,0.0,0.0
10:11:41,-1136394.267,0.0,0.0
10:11:41,-1130168.331,0.0,0.0
10:11:41,-1136394.24,0.0,0.0
10:11:41,-1137836.03,0.0,0.0
10:11:41,-1131741.184,0.0,0.0
10:11:41,-1137508.353,0.0,0.0
10:11:41,-1137508.353,0.0,0.0
10:11:41,-1132068.865,0.0,0.0
10:11:41,-1135280.129,0.0,0.0
10:11:41,-1132593.152,0.0,0.0
10:11:41,-1129644.032,0.0,0.0
10:11:41,-1138163.713,0.0,0.0
10:11:41,-1134624.768,0.0,0.0
10:11:41,-1128857.6,0.0,0.0
10:11:42,-1136852.993,0.0,0.0
10:11:42,-1134821.377,0.0,0.0
10:11:42,-1131544.577,0.0,0.0
10:11:42,-1135869.953,0.0,0.0
10:11:42,-1131675.649,0.0,0.0
10:11:42,-1131544.577,0.0,0.0
10:11:42,-1137770.498,0.0,0.0
10:11:42,-1132003.332,0.0,0.0
10:11:42,-1131741.188,0.0,0.0
10:11:42,-1136656.39,0.0,0.0
10:11:42,-1131741.192,0.0,0.0
10:11:42,-1132396.552,0.0,0.0
10:11:42,-1137180.681,0.0,0.0
10:11:42,-1131085.833,0.0,0.0
10:11:42,-1130889.226,0.0,0.0
10:11:42,-1136132.105,0.0,0.0
10:11:42,-1132724.233,0.0,0.0
10:11:42,-1134493.705,0.0,0.0
10:11:42,-1138950.151,0.0,0.0
10:11:42,-1132396.55,0.0,0.0
10:11:42,-1132724.228,0.0,0.0
10:11:42,-1137311.746,0.0,0.0
10:11:42,-1130233.857,0.0,0.0
10:11:42,-1133182.975,0.0,0.0
10:11:42,-1136656.382,0.0,0.0
10:11:42,-1130627.07,0.0,0.0
10:11:42,-1134624.765,0.0,0.0
10:11:42,-1136132.094,0.0,0.0
10:11:42,-1129316.35,0.0,0.0
10:11:42,-1134034.943,0.0,0.0
10:11:42,-1135869.95,0.0,0.0
10:11:42,-1131020.287,0.0,0.0
10:11:42,-1134297.087,0.0,0.0
10:11:42,-1138032.64,0.0,0.0
10:11:42,-1131806.719,0.0,0.0
10:11:42,-1133707.264,0.0,0.0
10:11:42,-1136590.848,0.0,0.0
10:11:42,-1130823.681,0.0,0.0
10:11:42,-1134755.84,0.0,0.0
10:11:42,-1136066.56,0.0,0.0
10:11:42,-1128988.673,0.0,0.0
10:11:42,-1136066.561,0.0,0.0
10:11:42,-1136459.777,0.0,0.0
10:11:42,-1131610.113,0.0,0.0
10:11:42,-1135411.201,0.0,0.0
10:11:42,-1136328.705,0.0,0.0
10:11:42,-1132396.545,0.0,0.0
10:11:42,-1137508.353,0.0,0.0
10:11:42,-1136721.92,0.0,0.0
10:11:42,-1133248.512,0.0,0.0
10:11:42,-1140129.793,0.0,0.0
10:11:42,-1135149.057,0.0,0.0
10:11:42,-1132134.401,0.0,0.0
10:11:42,-1138229.249,0.0,0.0
10:11:42,-1134821.377,0.0,0.0
10:11:42,-1132527.618,0.0,0.0
10:11:42,-1139408.899,0.0,0.0
10:11:42,-1135738.885,0.0,0.0
10:11:42,-1132527.621,0.0,0.0
10:11:42,-1138163.717,0.0,0.0
10:11:42,-1134100.485,0.0,0.0
10:11:42,-1134821.38,0.0,0.0
10:11:42,-1138753.539,0.0,0.0
10:11:42,-1133707.265,0.0,0.0
10:11:42,-1134362.623,0.0,0.0
10:11:42,-1142489.087,0.0,0.0
10:11:42,-1136721.919,0.0,0.0
10:11:42,-1134886.911,0.0,0.0
10:11:42,-1142095.872,0.0,0.0
10:11:42,-1136525.312,0.0,0.0
10:11:42,-1135542.273,0.0,0.0
10:11:42,-1140719.617,0.0,0.0
10:11:42,-1133576.192,0.0,0.0
10:11:42,-1136918.528,0.0,0.0
10:11:42,-1141440.512,0.0,0.0
10:11:42,-1132920.829,0.0,0.0
10:11:42,-1136394.24,0.0,0.0
10:11:42,-1140719.629,0.0,0.0
10:11:42,-1134690.335,0.0,0.0
10:11:42,-1138950.18,0.0,0.0
10:11:42,-1142882.328,0.0,0.0
10:11:42,-1137180.678,0.0,0.0
10:11:42,-1140195.326,0.0,0.0
10:11:42,-1145307.135,0.0,0.0
10:11:42,-1137049.6,0.0,0.0
10:11:42,-1136656.385,0.0,0.0
10:11:42,-1140129.793,0.0,0.0
10:11:42,-1135607.809,0.0,0.0
10:11:42,-1140260.865,0.0,0.0
10:11:42,-1142882.305,0.0,0.0
10:11:42,-1137836.032,0.0,0.0
10:11:42,-1139933.184,0.0,0.0
10:11:42,-1140523.009,0.0,0.0
10:11:42,-1136787.457,0.0,0.0
10:11:42,-1142751.233,0.0,0.0
10:11:42,-1143799.809,0.0,0.0
10:11:42,-1138163.713,0.0,0.0
10:11:42,-1143209.985,0.0,0.0
10:11:42,-1141702.657,0.0,0.0
10:11:42,-1136918.529,0.0,0.0
10:11:42,-1144389.635,0.0,0.0
10:11:42,-1142554.627,0.0,0.0
10:11:42,-1137115.141,0.0,0.0
10:11:42,-1143734.278,0.0,0.0
10:11:42,-1141047.304,0.0,0.0
10:11:42,-1136525.321,0.0,0.0
10:11:42,-1146159.113,0.0,0.0
10:11:42,-1143013.386,0.0,0.0
10:11:42,-1138294.793,0.0,0.0
10:11:42,-1147731.977,0.0,0.0
10:11:42,-1142882.313,0.0,0.0
10:11:42,-1140785.16,0.0,0.0
10:11:42,-1149173.767,0.0,0.0
10:11:42,-1142882.309,0.0,0.0
10:11:42,-1139998.723,0.0,0.0
10:11:42,-1146159.106,0.0,0.0
10:11:42,-1140326.4,0.0,0.0
10:11:42,-1141768.192,0.0,0.0
10:11:42,-1148649.47,0.0,0.0
10:11:42,-1142620.158,0.0,0.0
10:11:42,-1141112.829,0.0,0.0
10:11:42,-1147076.606,0.0,0.0
10:11:42,-1142161.406,0.0,0.0
10:11:43,-1145503.743,0.0,0.0
10:11:43,-1151336.446,0.0,0.0
10:11:43,-1143078.911,0.0,0.0
10:11:43,-1143930.879,0.0,0.0
10:11:43,-1149698.048,0.0,0.0
10:11:43,-1145241.599,0.0,0.0
10:11:43,-1145372.672,0.0,0.0
10:11:43,-1149960.192,0.0,0.0
10:11:43,-1144586.24,0.0,0.0
10:11:43,-1146093.569,0.0,0.0
10:11:43,-1151074.305,0.0,0.0
10:11:43,-1146617.857,0.0,0.0
10:11:43,-1149566.977,0.0,0.0
10:11:43,-1152188.417,0.0,0.0
10:11:43,-1144324.097,0.0,0.0
10:11:43,-1149173.76,0.0,0.0
10:11:43,-1153433.6,0.0,0.0
10:11:43,-1147076.609,0.0,0.0
10:11:43,-1153040.384,0.0,0.0
10:11:43,-1154220.033,0.0,0.0
10:11:43,-1148190.721,0.0,0.0
10:11:43,-1152450.56,0.0,0.0
10:11:43,-1152712.705,0.0,0.0
10:11:43,-1147273.217,0.0,0.0
10:11:43,-1155137.537,0.0,0.0
10:11:43,-1156317.185,0.0,0.0
10:11:43,-1149566.978,0.0,0.0
10:11:43,-1153564.675,0.0,0.0
10:11:43,-1156513.797,0.0,0.0
10:11:43,-1150091.269,0.0,0.0
10:11:43,-1156448.261,0.0,0.0
10:11:43,-1156513.797,0.0,0.0
10:11:43,-1151729.667,0.0,0.0
10:11:43,-1159921.666,0.0,0.0
10:11:43,-1158152.192,0.0,0.0
10:11:43,-1152974.848,0.0,0.0
10:11:43,-1159528.448,0.0,0.0
10:11:43,-1154875.391,0.0,0.0
10:11:43,-1151926.271,0.0,0.0
10:11:43,-1159397.376,0.0,0.0
10:11:43,-1156513.792,0.0,0.0
10:11:43,-1153957.889,0.0,0.0
10:11:43,-1159856.129,0.0,0.0
10:11:43,-1157627.905,0.0,0.0
10:11:43,-1155858.433,0.0,0.0
10:11:43,-1163263.999,0.0,0.0
10:11:43,-1161166.845,0.0,0.0
10:11:43,-1158807.554,0.0,0.0
10:11:43,-1163788.305,0.0,0.0
10:11:43,-1158283.297,0.0,0.0
10:11:43,-1154875.425,0.0,0.0
10:11:43,-1162412.05,0.0,0.0
10:11:43,-1159659.523,0.0,0.0
10:11:43,-1158348.797,0.0,0.0
10:11:43,-1164574.718,0.0,0.0
10:11:43,-1161297.92,0.0,0.0
10:11:43,-1162346.496,0.0,0.0
10:11:43,-1166344.193,0.0,0.0
10:11:43,-1161756.672,0.0,0.0
10:11:43,-1161428.993,0.0,0.0
10:11:43,-1168769.025,0.0,0.0
10:11:43,-1162346.497,0.0,0.0
10:11:43,-1163264.0,0.0,0.0
10:11:43,-1167720.448,0.0,0.0
10:11:43,-1161887.745,0.0,0.0
10:11:43,-1166606.337,0.0,0.0
10:11:43,-1171324.929,0.0,0.0
10:11:43,-1165164.545,0.0,0.0
10:11:43,-1166671.873,0.0,0.0
10:11:43,-1172701.185,0.0,0.0
10:11:43,-1166540.801,0.0,0.0
10:11:43,-1168244.739,0.0,0.0
10:11:43,-1171849.22,0.0,0.0
10:11:43,-1164967.942,0.0,0.0
10:11:43,-1169031.174,0.0,0.0
10:11:43,-1173094.407,0.0,0.0
10:11:43,-1166737.417,0.0,0.0
10:11:43,-1172045.833,0.0,0.0
10:11:43,-1173159.946,0.0,0.0
10:11:43,-1167785.994,0.0,0.0
10:11:43,-1175191.561,0.0,0.0
10:11:43,-1176436.745,0.0,0.0
10:11:43,-1169424.392,0.0,0.0
10:11:43,-1174405.126,0.0,0.0
10:11:43,-1176502.277,0.0,0.0
10:11:43,-1173946.371,0.0,0.0
10:11:43,-1178468.354,0.0,0.0
10:11:43,-1178009.6,0.0,0.0
10:11:43,-1175257.086,0.0,0.0
10:11:43,-1182072.83,0.0,0.0
10:11:43,-1180958.717,0.0,0.0
10:11:43,-1175519.229,0.0,0.0
10:11:43,-1180958.718,0.0,0.0
10:11:43,-1180434.43,0.0,0.0
10:11:43,-1176174.591,0.0,0.0
10:11:43,-1182793.726,0.0,0.0
10:11:43,-1179844.607,0.0,0.0
10:11:43,-1175388.159,0.0,0.0
10:11:43,-1183907.84,0.0,0.0
10:11:43,-1180827.647,0.0,0.0
10:11:43,-1177812.992,0.0,0.0
10:11:43,-1185873.92,0.0,0.0
10:11:43,-1182662.657,0.0,0.0
10:11:43,-1180827.648,0.0,0.0
10:11:43,-1187971.072,0.0,0.0
10:11:43,-1182400.513,0.0,0.0
10:11:43,-1182400.513,0.0,0.0
10:11:43,-1188757.505,0.0,0.0
10:11:43,-1184563.201,0.0,0.0
10:11:43,-1184235.521,0.0,0.0
10:11:43,-1188167.681,0.0,0.0
10:11:43,-1183383.553,0.0,0.0
10:11:43,-1184038.913,0.0,0.0
10:11:43,-1189543.937,0.0,0.0
10:11:43,-1183711.233,0.0,0.0
10:11:43,-1184628.737,0.0,0.0
10:11:43,-1188954.113,0.0,0.0
10:11:43,-1182269.441,0.0,0.0
10:11:43,-1186267.137,0.0,0.0
10:11:43,-1191051.266,0.0,0.0
10:11:43,-1185349.635,0.0,0.0
10:11:43,-1186136.067,0.0,0.0
10:11:43,-1191837.701,0.0,0.0
10:11:43,-1185349.638,0.0,0.0
10:11:43,-1187053.573,0.0,0.0
10:11:44,-1189937.157,0.0,0.0
10:11:44,-1183383.555,0.0,0.0
10:11:44,-1187971.074,0.0,0.0
10:11:44,-1189478.399,0.0,0.0
10:11:44,-1184563.199,0.0,0.0
10:11:44,-1189609.471,0.0,0.0
10:11:44,-1190133.76,0.0,0.0
10:11:44,-1185611.775,0.0,0.0
10:11:44,-1188954.111,0.0,0.0
10:11:44,-1190068.224,0.0,0.0
10:11:44,-1182728.192,0.0,0.0
10:11:44,-1189609.473,0.0,0.0
10:11:44,-1190395.905,0.0,0.0
10:11:44,-1185218.56,0.0,0.0
10:11:44,-1187708.927,0.0,0.0
10:11:44,-1187774.462,0.0,0.0
10:11:44,-1181810.693,0.0,0.0
10:11:44,-1188364.311,0.0,0.0
10:11:44,-1188626.468,0.0,0.0
10:11:44,-1183449.119,0.0,0.0
10:11:44,-1189085.197,0.0,0.0
10:11:44,-1187708.928,0.0,0.0
10:11:44,-1184104.446,0.0,0.0
10:11:44,-1190920.191,0.0,0.0
10:11:44,-1187315.713,0.0,0.0
10:11:44,-1183186.945,0.0,0.0
10:11:44,-1190330.369,0.0,0.0
10:11:44,-1187250.177,0.0,0.0
10:11:44,-1182728.192,0.0,0.0
10:11:44,-1186791.425,0.0,0.0
10:11:44,-1185873.92,0.0,0.0
10:11:44,-1181155.328,0.0,0.0
10:11:44,-1188167.681,0.0,0.0
10:11:44,-1184628.737,0.0,0.0
10:11:44,-1180696.577,0.0,0.0
10:11:44,-1187708.928,0.0,0.0
10:11:44,-1184563.2,0.0,0.0
10:11:44,-1181286.401,0.0,0.0
10:11:44,-1186791.425,0.0,0.0
10:11:44,-1181417.474,0.0,0.0
10:11:44,-1182859.267,0.0,0.0
10:11:44,-1187577.86,0.0,0.0
10:11:44,-1181810.694,0.0,0.0
10:11:44,-1180434.438,0.0,0.0
10:11:44,-1185480.711,0.0,0.0
10:11:44,-1177157.641,0.0,0.0
10:11:44,-1179385.865,0.0,0.0
10:11:44,-1183252.49,0.0,0.0
10:11:44,-1174929.417,0.0,0.0
10:11:44,-1177026.569,0.0,0.0
10:11:44,-1179910.152,0.0,0.0
10:11:44,-1176633.351,0.0,0.0
10:11:44,-1177944.07,0.0,0.0
10:11:44,-1181745.156,0.0,0.0
10:11:44,-1172504.579,0.0,0.0
10:11:44,-1173422.081,0.0,0.0
10:11:44,-1177485.311,0.0,0.0
10:11:44,-1168113.662,0.0,0.0
10:11:44,-1173291.005,0.0,0.0
10:11:44,-1174732.798,0.0,0.0
10:11:44,-1166737.406,0.0,0.0
10:11:44,-1171324.925,0.0,0.0
10:11:44,-1171062.782,0.0,0.0
10:11:44,-1164378.11,0.0,0.0
10:11:44,-1169424.383,0.0,0.0
10:11:44,-1169358.846,0.0,0.0
10:11:44,-1162149.887,0.0,0.0
10:11:44,-1166540.799,0.0,0.0
10:11:44,-1164378.112,0.0,0.0
10:11:44,-1158348.799,0.0,0.0
10:11:44,-1161953.28,0.0,0.0
10:11:44,-1160118.272,0.0,0.0
10:11:44,-1154416.641,0.0,0.0
10:11:44,-1160970.24,0.0,0.0
10:11:44,-1157758.976,0.0,0.0
10:11:44,-1152057.345,0.0,0.0
10:11:44,-1159856.129,0.0,0.0
10:11:44,-1155334.145,0.0,0.0
10:11:44,-1149370.369,0.0,0.0
10:11:44,-1155465.217,0.0,0.0
10:11:44,-1151467.521,0.0,0.0
10:11:44,-1147535.361,0.0,0.0
10:11:44,-1153499.137,0.0,0.0
10:11:44,-1149239.297,0.0,0.0
10:11:44,-1145044.993,0.0,0.0
10:11:44,-1151795.2,0.0,0.0
10:11:44,-1145962.496,0.0,0.0
10:11:44,-1142816.769,0.0,0.0
10:11:44,-1149304.833,0.0,0.0
10:11:44,-1143275.523,0.0,0.0
10:11:44,-1142423.556,0.0,0.0
10:11:44,-1147011.077,0.0,0.0
10:11:44,-1141309.446,0.0,0.0
10:11:44,-1140916.229,0.0,0.0
10:11:44,-1144061.956,0.0,0.0
10:11:44,-1138425.859,0.0,0.0
10:11:44,-1141440.513,0.0,0.0
10:11:44,-1145176.064,0.0,0.0
10:11:44,-1135935.487,0.0,0.0
10:11:44,-1138884.607,0.0,0.0
10:11:44,-1144455.168,0.0,0.0
10:11:44,-1134362.623,0.0,0.0
10:11:44,-1135869.952,0.0,0.0
10:11:44,-1138688.0,0.0,0.0
10:11:44,-1134428.161,0.0,0.0
10:11:44,-1137836.032,0.0,0.0
10:11:44,-1139802.113,0.0,0.0
10:11:44,-1132396.544,0.0,0.0
10:11:44,-1134624.766,0.0,0.0
10:11:44,-1138294.782,0.0,0.0
10:11:44,-1132396.554,0.0,0.0
10:11:44,-1137115.163,0.0,0.0
10:11:44,-1138294.819,0.0,0.0
10:11:44,-1131085.85,0.0,0.0
10:11:44,-1134231.561,0.0,0.0
10:11:44,-1137967.102,0.0,0.0
