TimeStramp,ECG,SpO2,Respiration
12:56:15,631636.0,0.0,0.0
12:56:15,631656.0,0.0,0.0
12:56:15,631732.0,0.0,0.0
12:56:15,631550.0,0.0,0.0
12:56:15,631673.0,0.0,0.0
12:56:15,631544.0,0.0,0.0
12:56:15,631506.0,0.0,0.0
12:56:15,631544.0,0.0,0.0
12:56:15,631419.0,0.0,0.0
12:56:15,631547.0,0.0,0.0
12:56:15,631441.0,0.0,0.0
12:56:15,631468.0,0.0,0.0
12:56:15,631535.0,0.0,0.0
12:56:15,631387.0,0.0,0.0
12:56:15,631543.0,0.0,0.0
12:56:15,631424.0,0.0,0.0
12:56:15,631394.0,0.0,0.0
12:56:15,631440.0,0.0,0.0
12:56:15,631240.0,0.0,0.0
12:56:15,631319.0,0.0,0.0
12:56:15,631169.0,0.0,0.0
12:56:15,631093.0,0.0,0.0
12:56:15,631073.0,0.0,0.0
12:56:15,630831.0,0.0,0.0
12:56:15,630893.0,0.0,0.0
12:56:15,630718.0,0.0,0.0
12:56:15,630619.0,0.0,0.0
12:56:15,630653.0,0.0,0.0
12:56:15,630527.0,0.0,0.0
12:56:15,630638.0,0.0,0.0
12:56:15,630523.0,0.0,0.0
12:56:15,630575.0,0.0,0.0
12:56:15,630676.0,0.0,0.0
12:56:15,630549.0,0.0,0.0
12:56:15,630720.0,0.0,0.0
12:56:15,630603.0,0.0,0.0
12:56:15,630600.0,0.0,0.0
12:56:15,630648.0,0.0,0.0
12:56:15,630475.0,0.0,0.0
12:56:15,630622.0,0.0,0.0
12:56:15,630495.0,0.0,0.0
12:56:15,630511.0,0.0,0.0
12:56:15,630576.0,0.0,0.0
12:56:15,630430.0,0.0,0.0
12:56:15,630614.0,0.0,0.0
12:56:15,630499.0,0.0,0.0
12:56:15,630577.0,0.0,0.0
12:56:15,630680.0,0.0,0.0
12:56:15,630566.0,0.0,0.0
12:56:15,630749.0,0.0,0.0
12:56:15,630708.0,0.0,0.0
12:56:15,630724.0,0.0,0.0
12:56:15,630766.0,0.0,0.0
12:56:15,630621.0,0.0,0.0
12:56:15,630767.0,0.0,0.0
12:56:15,630638.0,0.0,0.0
12:56:15,630664.0,0.0,0.0
12:56:15,630708.0,0.0,0.0
12:56:15,630522.0,0.0,0.0
12:56:15,630721.0,0.0,0.0
12:56:15,630608.0,0.0,0.0
12:56:15,630630.0,0.0,0.0
12:56:15,630685.0,0.0,0.0
12:56:15,630532.0,0.0,0.0
12:56:15,630685.0,0.0,0.0
12:56:15,630622.0,0.0,0.0
12:56:15,630664.0,0.0,0.0
12:56:15,630701.0,0.0,0.0
12:56:15,630556.0,0.0,0.0
12:56:15,630713.0,0.0,0.0
12:56:15,630604.0,0.0,0.0
12:56:15,630787.0,0.0,0.0
12:56:15,631013.0,0.0,0.0
12:56:15,630972.0,0.0,0.0
12:56:15,631041.0,0.0,0.0
12:56:15,630731.0,0.0,0.0
12:56:15,630652.0,0.0,0.0
12:56:15,630693.0,0.0,0.0
12:56:15,630586.0,0.0,0.0
12:56:15,630794.0,0.0,0.0
12:56:15,630695.0,0.0,0.0
12:56:15,630724.0,0.0,0.0
12:56:15,630773.0,0.0,0.0
12:56:15,630599.0,0.0,0.0
12:56:15,630642.0,0.0,0.0
12:56:15,630522.0,0.0,0.0
12:56:15,630508.0,0.0,0.0
12:56:15,630509.0,0.0,0.0
12:56:15,630336.0,0.0,0.0
12:56:15,630417.0,0.0,0.0
12:56:15,630264.0,0.0,0.0
12:56:15,630243.0,0.0,0.0
12:56:15,630281.0,0.0,0.0
12:56:15,630154.0,0.0,0.0
12:56:15,630268.0,0.0,0.0
12:56:15,630118.0,0.0,0.0
12:56:15,630213.0,0.0,0.0
12:56:15,630271.0,0.0,0.0
12:56:15,630134.0,0.0,0.0
12:56:15,630288.0,0.0,0.0
12:56:15,630153.0,0.0,0.0
12:56:15,630205.0,0.0,0.0
12:56:15,630276.0,0.0,0.0
12:56:15,630156.0,0.0,0.0
12:56:15,630328.0,0.0,0.0
12:56:15,630194.0,0.0,0.0
12:56:15,630266.0,0.0,0.0
12:56:15,630344.0,0.0,0.0
12:56:15,630228.0,0.0,0.0
12:56:15,630476.0,0.0,0.0
12:56:15,630371.0,0.0,0.0
12:56:15,630456.0,0.0,0.0
12:56:15,630499.0,0.0,0.0
12:56:15,630373.0,0.0,0.0
12:56:15,630598.0,0.0,0.0
12:56:15,630434.0,0.0,0.0
12:56:15,630497.0,0.0,0.0
12:56:15,630545.0,0.0,0.0
12:56:15,630367.0,0.0,0.0
12:56:15,630504.0,0.0,0.0
12:56:15,630302.0,0.0,0.0
12:56:15,630358.0,0.0,0.0
12:56:15,630408.0,0.0,0.0
12:56:15,630251.0,0.0,0.0
12:56:15,630414.0,0.0,0.0
12:56:16,630230.0,0.0,0.0
12:56:16,630275.0,0.0,0.0
12:56:16,630273.0,0.0,0.0
12:56:16,630073.0,0.0,0.0
12:56:16,630233.0,0.0,0.0
12:56:16,630001.0,0.0,0.0
12:56:16,630063.0,0.0,0.0
12:56:16,630085.0,0.0,0.0
12:56:16,629877.0,0.0,0.0
12:56:16,630053.0,0.0,0.0
12:56:16,629859.0,0.0,0.0
12:56:16,629929.0,0.0,0.0
12:56:16,629965.0,0.0,0.0
12:56:16,629846.0,0.0,0.0
12:56:16,630079.0,0.0,0.0
12:56:16,629841.0,0.0,0.0
12:56:16,629874.0,0.0,0.0
12:56:16,629884.0,0.0,0.0
12:56:16,629700.0,0.0,0.0
12:56:16,629915.0,0.0,0.0
12:56:16,629653.0,0.0,0.0
12:56:16,629687.0,0.0,0.0
12:56:16,629658.0,0.0,0.0
12:56:16,629410.0,0.0,0.0
12:56:16,629543.0,0.0,0.0
12:56:16,629212.0,0.0,0.0
12:56:16,629224.0,0.0,0.0
12:56:16,629169.0,0.0,0.0
12:56:16,628962.0,0.0,0.0
12:56:16,629143.0,0.0,0.0
12:56:16,628891.0,0.0,0.0
12:56:16,628990.0,0.0,0.0
12:56:16,629036.0,0.0,0.0
12:56:16,628796.0,0.0,0.0
12:56:16,628992.0,0.0,0.0
12:56:16,628725.0,0.0,0.0
12:56:16,628716.0,0.0,0.0
12:56:16,628679.0,0.0,0.0
12:56:16,628390.0,0.0,0.0
12:56:16,628512.0,0.0,0.0
12:56:16,628166.0,0.0,0.0
12:56:16,628111.0,0.0,0.0
12:56:16,628049.0,0.0,0.0
12:56:16,627703.0,0.0,0.0
12:56:16,627741.0,0.0,0.0
12:56:16,627508.0,0.0,0.0
12:56:16,627638.0,0.0,0.0
12:56:16,627699.0,0.0,0.0
12:56:16,627675.0,0.0,0.0
12:56:16,627924.0,0.0,0.0
12:56:16,627488.0,0.0,0.0
12:56:16,627301.0,0.0,0.0
12:56:16,627101.0,0.0,0.0
12:56:16,626860.0,0.0,0.0
12:56:16,626958.0,0.0,0.0
12:56:16,626731.0,0.0,0.0
12:56:16,627019.0,0.0,0.0
12:56:16,627059.0,0.0,0.0
12:56:16,627012.0,0.0,0.0
12:56:16,626979.0,0.0,0.0
12:56:16,627104.0,0.0,0.0
12:56:16,627539.0,0.0,0.0
12:56:16,627566.0,0.0,0.0
12:56:16,627498.0,0.0,0.0
12:56:16,627823.0,0.0,0.0
12:56:16,627648.0,0.0,0.0
12:56:16,627971.0,0.0,0.0
12:56:16,628012.0,0.0,0.0
12:56:16,627963.0,0.0,0.0
12:56:16,628274.0,0.0,0.0
12:56:16,628091.0,0.0,0.0
12:56:16,628355.0,0.0,0.0
12:56:16,628398.0,0.0,0.0
12:56:16,628348.0,0.0,0.0
12:56:16,628663.0,0.0,0.0
12:56:16,628507.0,0.0,0.0
12:56:16,628766.0,0.0,0.0
12:56:16,628818.0,0.0,0.0
12:56:16,628790.0,0.0,0.0
12:56:16,629121.0,0.0,0.0
12:56:16,628994.0,0.0,0.0
12:56:16,629268.0,0.0,0.0
12:56:16,629357.0,0.0,0.0
12:56:16,629299.0,0.0,0.0
12:56:16,629640.0,0.0,0.0
12:56:16,629513.0,0.0,0.0
12:56:16,629680.0,0.0,0.0
12:56:16,629818.0,0.0,0.0
12:56:16,629756.0,0.0,0.0
12:56:16,629999.0,0.0,0.0
12:56:16,629898.0,0.0,0.0
12:56:16,630062.0,0.0,0.0
12:56:16,630164.0,0.0,0.0
12:56:16,630137.0,0.0,0.0
12:56:16,630359.0,0.0,0.0
12:56:16,630282.0,0.0,0.0
12:56:16,630413.0,0.0,0.0
12:56:16,630474.0,0.0,0.0
12:56:16,630438.0,0.0,0.0
12:56:16,630687.0,0.0,0.0
12:56:16,630566.0,0.0,0.0
12:56:16,630733.0,0.0,0.0
12:56:16,630662.0,0.0,0.0
12:56:16,630428.0,0.0,0.0
12:56:16,630759.0,0.0,0.0
12:56:16,630696.0,0.0,0.0
12:56:16,630791.0,0.0,0.0
12:56:16,630904.0,0.0,0.0
12:56:16,630966.0,0.0,0.0
12:56:16,631160.0,0.0,0.0
12:56:16,631083.0,0.0,0.0
12:56:16,631253.0,0.0,0.0
12:56:16,631356.0,0.0,0.0
12:56:16,631426.0,0.0,0.0
12:56:16,631787.0,0.0,0.0
12:56:16,631851.0,0.0,0.0
12:56:16,632156.0,0.0,0.0
12:56:16,632289.0,0.0,0.0
12:56:16,632284.0,0.0,0.0
12:56:16,632556.0,0.0,0.0
12:56:16,632501.0,0.0,0.0
12:56:16,632634.0,0.0,0.0
12:56:16,632631.0,0.0,0.0
12:56:16,632544.0,0.0,0.0
12:56:16,632727.0,0.0,0.0
12:56:17,632507.0,0.0,0.0
12:56:17,632622.0,0.0,0.0
12:56:17,632641.0,0.0,0.0
12:56:17,632568.0,0.0,0.0
12:56:17,632725.0,0.0,0.0
12:56:17,632555.0,0.0,0.0
12:56:17,632746.0,0.0,0.0
12:56:17,632799.0,0.0,0.0
12:56:17,632712.0,0.0,0.0
12:56:17,632861.0,0.0,0.0
12:56:17,632677.0,0.0,0.0
12:56:17,632856.0,0.0,0.0
12:56:17,632815.0,0.0,0.0
12:56:17,632717.0,0.0,0.0
12:56:17,632940.0,0.0,0.0
12:56:17,632788.0,0.0,0.0
12:56:17,632942.0,0.0,0.0
12:56:17,632948.0,0.0,0.0
12:56:17,632846.0,0.0,0.0
12:56:17,633026.0,0.0,0.0
12:56:17,632944.0,0.0,0.0
12:56:17,633176.0,0.0,0.0
12:56:17,633265.0,0.0,0.0
12:56:17,633176.0,0.0,0.0
12:56:17,633189.0,0.0,0.0
12:56:17,632949.0,0.0,0.0
12:56:17,633124.0,0.0,0.0
12:56:17,633134.0,0.0,0.0
12:56:17,633070.0,0.0,0.0
12:56:17,633232.0,0.0,0.0
12:56:17,633036.0,0.0,0.0
12:56:17,633208.0,0.0,0.0
12:56:17,633226.0,0.0,0.0
12:56:17,633188.0,0.0,0.0
12:56:17,633318.0,0.0,0.0
12:56:17,633146.0,0.0,0.0
12:56:17,633336.0,0.0,0.0
12:56:17,633294.0,0.0,0.0
12:56:17,633185.0,0.0,0.0
12:56:17,633309.0,0.0,0.0
12:56:17,633052.0,0.0,0.0
12:56:17,633119.0,0.0,0.0
12:56:17,633028.0,0.0,0.0
12:56:17,632904.0,0.0,0.0
12:56:17,633043.0,0.0,0.0
12:56:17,632824.0,0.0,0.0
12:56:17,632934.0,0.0,0.0
12:56:17,632909.0,0.0,0.0
12:56:17,632834.0,0.0,0.0
12:56:17,632986.0,0.0,0.0
12:56:17,632784.0,0.0,0.0
12:56:17,632901.0,0.0,0.0
12:56:17,632847.0,0.0,0.0
12:56:17,632827.0,0.0,0.0
12:56:17,633003.0,0.0,0.0
12:56:17,632808.0,0.0,0.0
12:56:17,632995.0,0.0,0.0
12:56:17,632926.0,0.0,0.0
12:56:17,632857.0,0.0,0.0
12:56:17,632999.0,0.0,0.0
12:56:17,632869.0,0.0,0.0
12:56:17,633019.0,0.0,0.0
12:56:17,633039.0,0.0,0.0
12:56:17,633025.0,0.0,0.0
12:56:17,633231.0,0.0,0.0
12:56:17,633114.0,0.0,0.0
12:56:17,633230.0,0.0,0.0
12:56:17,633211.0,0.0,0.0
12:56:17,633142.0,0.0,0.0
12:56:17,633272.0,0.0,0.0
12:56:17,633142.0,0.0,0.0
12:56:17,633349.0,0.0,0.0
12:56:17,633392.0,0.0,0.0
12:56:17,633405.0,0.0,0.0
12:56:17,633668.0,0.0,0.0
12:56:17,633536.0,0.0,0.0
12:56:17,633731.0,0.0,0.0
12:56:17,633685.0,0.0,0.0
12:56:17,633585.0,0.0,0.0
12:56:17,633674.0,0.0,0.0
12:56:17,633864.0,0.0,0.0
12:56:17,634359.0,0.0,0.0
12:56:17,634379.0,0.0,0.0
12:56:17,634511.0,0.0,0.0
12:56:17,634801.0,0.0,0.0
12:56:17,634668.0,0.0,0.0
12:56:17,634885.0,0.0,0.0
12:56:17,634778.0,0.0,0.0
12:56:17,634643.0,0.0,0.0
12:56:17,634703.0,0.0,0.0
12:56:17,634413.0,0.0,0.0
12:56:17,634496.0,0.0,0.0
12:56:17,634339.0,0.0,0.0
12:56:17,634256.0,0.0,0.0
12:56:17,634398.0,0.0,0.0
12:56:17,634179.0,0.0,0.0
12:56:17,634321.0,0.0,0.0
12:56:17,634313.0,0.0,0.0
12:56:17,634317.0,0.0,0.0
12:56:17,634521.0,0.0,0.0
12:56:17,634338.0,0.0,0.0
12:56:17,634502.0,0.0,0.0
12:56:17,634412.0,0.0,0.0
12:56:17,634311.0,0.0,0.0
12:56:17,634443.0,0.0,0.0
12:56:17,634269.0,0.0,0.0
12:56:17,634377.0,0.0,0.0
12:56:17,634249.0,0.0,0.0
12:56:17,634082.0,0.0,0.0
12:56:17,634158.0,0.0,0.0
12:56:17,633970.0,0.0,0.0
12:56:17,634063.0,0.0,0.0
12:56:17,633968.0,0.0,0.0
12:56:17,633695.0,0.0,0.0
12:56:17,633590.0,0.0,0.0
12:56:17,633236.0,0.0,0.0
12:56:17,633306.0,0.0,0.0
12:56:17,633190.0,0.0,0.0
12:56:17,633085.0,0.0,0.0
12:56:17,633161.0,0.0,0.0
12:56:17,632883.0,0.0,0.0
12:56:17,632951.0,0.0,0.0
12:56:17,632813.0,0.0,0.0
12:56:17,632714.0,0.0,0.0
12:56:17,632764.0,0.0,0.0
12:56:18,632417.0,0.0,0.0
12:56:18,632433.0,0.0,0.0
12:56:18,632283.0,0.0,0.0
12:56:18,632158.0,0.0,0.0
12:56:18,632208.0,0.0,0.0
12:56:18,631918.0,0.0,0.0
12:56:18,631949.0,0.0,0.0
12:56:18,631779.0,0.0,0.0
12:56:18,631713.0,0.0,0.0
12:56:18,631788.0,0.0,0.0
12:56:18,631546.0,0.0,0.0
12:56:18,631691.0,0.0,0.0
12:56:18,631578.0,0.0,0.0
12:56:18,631433.0,0.0,0.0
12:56:18,631507.0,0.0,0.0
12:56:18,631313.0,0.0,0.0
12:56:18,631469.0,0.0,0.0
12:56:18,631438.0,0.0,0.0
12:56:18,631378.0,0.0,0.0
12:56:18,631491.0,0.0,0.0
12:56:18,631186.0,0.0,0.0
12:56:18,631403.0,0.0,0.0
12:56:18,631553.0,0.0,0.0
12:56:18,631590.0,0.0,0.0
12:56:18,631741.0,0.0,0.0
12:56:18,631566.0,0.0,0.0
12:56:18,631758.0,0.0,0.0
12:56:18,631742.0,0.0,0.0
12:56:18,631836.0,0.0,0.0
12:56:18,632044.0,0.0,0.0
12:56:18,631896.0,0.0,0.0
12:56:18,631983.0,0.0,0.0
12:56:18,631756.0,0.0,0.0
12:56:18,631609.0,0.0,0.0
12:56:18,631621.0,0.0,0.0
12:56:18,631371.0,0.0,0.0
12:56:18,631474.0,0.0,0.0
12:56:18,631324.0,0.0,0.0
12:56:18,631263.0,0.0,0.0
12:56:18,631368.0,0.0,0.0
12:56:18,631114.0,0.0,0.0
12:56:18,631254.0,0.0,0.0
12:56:18,631161.0,0.0,0.0
12:56:18,631129.0,0.0,0.0
12:56:18,631245.0,0.0,0.0
12:56:18,631050.0,0.0,0.0
12:56:18,631204.0,0.0,0.0
12:56:18,631113.0,0.0,0.0
12:56:18,631079.0,0.0,0.0
12:56:18,631189.0,0.0,0.0
12:56:18,630993.0,0.0,0.0
12:56:18,631154.0,0.0,0.0
12:56:18,631070.0,0.0,0.0
12:56:18,631046.0,0.0,0.0
12:56:18,631220.0,0.0,0.0
12:56:18,631051.0,0.0,0.0
12:56:18,631263.0,0.0,0.0
12:56:18,631208.0,0.0,0.0
12:56:18,631186.0,0.0,0.0
12:56:18,631289.0,0.0,0.0
12:56:18,631117.0,0.0,0.0
12:56:18,631231.0,0.0,0.0
12:56:18,631078.0,0.0,0.0
12:56:18,631015.0,0.0,0.0
12:56:18,631200.0,0.0,0.0
12:56:18,631196.0,0.0,0.0
12:56:18,631423.0,0.0,0.0
12:56:18,631082.0,0.0,0.0
12:56:18,630796.0,0.0,0.0
12:56:18,630771.0,0.0,0.0
12:56:18,630593.0,0.0,0.0
12:56:18,630746.0,0.0,0.0
12:56:18,630629.0,0.0,0.0
12:56:18,630585.0,0.0,0.0
12:56:18,630649.0,0.0,0.0
12:56:18,630459.0,0.0,0.0
12:56:18,630618.0,0.0,0.0
12:56:18,630514.0,0.0,0.0
12:56:18,630445.0,0.0,0.0
12:56:18,630531.0,0.0,0.0
12:56:18,630301.0,0.0,0.0
12:56:18,630404.0,0.0,0.0
12:56:18,630189.0,0.0,0.0
12:56:18,630123.0,0.0,0.0
12:56:18,630291.0,0.0,0.0
12:56:18,630171.0,0.0,0.0
12:56:18,630338.0,0.0,0.0
12:56:18,630244.0,0.0,0.0
12:56:18,630236.0,0.0,0.0
12:56:18,630298.0,0.0,0.0
12:56:18,630131.0,0.0,0.0
12:56:18,630325.0,0.0,0.0
12:56:18,630202.0,0.0,0.0
12:56:18,630192.0,0.0,0.0
12:56:18,630318.0,0.0,0.0
12:56:18,630170.0,0.0,0.0
12:56:18,630335.0,0.0,0.0
12:56:18,630224.0,0.0,0.0
12:56:18,630194.0,0.0,0.0
12:56:18,630259.0,0.0,0.0
12:56:18,630108.0,0.0,0.0
12:56:18,630217.0,0.0,0.0
12:56:18,630066.0,0.0,0.0
12:56:18,630009.0,0.0,0.0
12:56:18,630089.0,0.0,0.0
12:56:18,629919.0,0.0,0.0
12:56:18,630035.0,0.0,0.0
12:56:18,629867.0,0.0,0.0
12:56:18,629843.0,0.0,0.0
12:56:18,629914.0,0.0,0.0
12:56:18,629741.0,0.0,0.0
12:56:18,629843.0,0.0,0.0
12:56:18,629722.0,0.0,0.0
12:56:18,629716.0,0.0,0.0
12:56:18,629784.0,0.0,0.0
12:56:18,629670.0,0.0,0.0
12:56:18,629863.0,0.0,0.0
12:56:18,629772.0,0.0,0.0
12:56:18,629776.0,0.0,0.0
12:56:18,629941.0,0.0,0.0
12:56:18,629842.0,0.0,0.0
12:56:18,630038.0,0.0,0.0
12:56:18,629986.0,0.0,0.0
12:56:18,629979.0,0.0,0.0
12:56:18,630031.0,0.0,0.0
12:56:19,629858.0,0.0,0.0
12:56:19,630044.0,0.0,0.0
12:56:19,629966.0,0.0,0.0
12:56:19,630056.0,0.0,0.0
12:56:19,630202.0,0.0,0.0
12:56:19,630093.0,0.0,0.0
12:56:19,630308.0,0.0,0.0
12:56:19,630304.0,0.0,0.0
12:56:19,630491.0,0.0,0.0
12:56:19,630684.0,0.0,0.0
12:56:19,630630.0,0.0,0.0
12:56:19,630851.0,0.0,0.0
12:56:19,630772.0,0.0,0.0
12:56:19,630719.0,0.0,0.0
12:56:19,630684.0,0.0,0.0
12:56:19,630573.0,0.0,0.0
12:56:19,630876.0,0.0,0.0
12:56:19,631003.0,0.0,0.0
12:56:19,630868.0,0.0,0.0
12:56:19,630608.0,0.0,0.0
12:56:19,630217.0,0.0,0.0
12:56:19,630272.0,0.0,0.0
12:56:19,630003.0,0.0,0.0
12:56:19,629791.0,0.0,0.0
12:56:19,629773.0,0.0,0.0
12:56:19,629495.0,0.0,0.0
12:56:19,629567.0,0.0,0.0
12:56:19,629381.0,0.0,0.0
12:56:19,629254.0,0.0,0.0
12:56:19,629273.0,0.0,0.0
12:56:19,629101.0,0.0,0.0
12:56:19,629160.0,0.0,0.0
12:56:19,628911.0,0.0,0.0
12:56:19,628786.0,0.0,0.0
12:56:19,628757.0,0.0,0.0
12:56:19,628563.0,0.0,0.0
12:56:19,628649.0,0.0,0.0
12:56:19,628531.0,0.0,0.0
12:56:19,628597.0,0.0,0.0
12:56:19,628745.0,0.0,0.0
12:56:19,628628.0,0.0,0.0
12:56:19,628741.0,0.0,0.0
12:56:19,628672.0,0.0,0.0
12:56:19,628727.0,0.0,0.0
12:56:19,628780.0,0.0,0.0
12:56:19,628669.0,0.0,0.0
12:56:19,628881.0,0.0,0.0
12:56:19,628890.0,0.0,0.0
12:56:19,629010.0,0.0,0.0
12:56:19,629086.0,0.0,0.0
12:56:19,628988.0,0.0,0.0
12:56:19,629221.0,0.0,0.0
12:56:19,629253.0,0.0,0.0
12:56:19,629419.0,0.0,0.0
12:56:19,629589.0,0.0,0.0
12:56:19,629531.0,0.0,0.0
12:56:19,629709.0,0.0,0.0
12:56:19,629654.0,0.0,0.0
12:56:19,629618.0,0.0,0.0
12:56:19,629633.0,0.0,0.0
12:56:19,629521.0,0.0,0.0
12:56:19,629603.0,0.0,0.0
12:56:19,629445.0,0.0,0.0
12:56:19,629480.0,0.0,0.0
12:56:19,629508.0,0.0,0.0
12:56:19,629378.0,0.0,0.0
12:56:19,629510.0,0.0,0.0
12:56:19,629409.0,0.0,0.0
12:56:19,629519.0,0.0,0.0
12:56:19,629638.0,0.0,0.0
12:56:19,629535.0,0.0,0.0
12:56:19,629664.0,0.0,0.0
12:56:19,629524.0,0.0,0.0
12:56:19,629577.0,0.0,0.0
12:56:19,629648.0,0.0,0.0
12:56:19,629491.0,0.0,0.0
12:56:19,629545.0,0.0,0.0
12:56:19,629486.0,0.0,0.0
12:56:19,629523.0,0.0,0.0
12:56:19,629502.0,0.0,0.0
12:56:19,629428.0,0.0,0.0
12:56:19,629501.0,0.0,0.0
12:56:19,629417.0,0.0,0.0
12:56:19,629343.0,0.0,0.0
12:56:19,629473.0,0.0,0.0
12:56:19,629246.0,0.0,0.0
12:56:19,629327.0,0.0,0.0
12:56:19,629084.0,0.0,0.0
12:56:19,629008.0,0.0,0.0
12:56:19,629086.0,0.0,0.0
12:56:19,628883.0,0.0,0.0
12:56:19,628968.0,0.0,0.0
12:56:19,629088.0,0.0,0.0
12:56:19,629478.0,0.0,0.0
12:56:19,629290.0,0.0,0.0
12:56:19,628900.0,0.0,0.0
12:56:19,628977.0,0.0,0.0
12:56:19,628792.0,0.0,0.0
12:56:19,628727.0,0.0,0.0
12:56:19,628721.0,0.0,0.0
12:56:19,628699.0,0.0,0.0
12:56:19,628936.0,0.0,0.0
12:56:19,628780.0,0.0,0.0
12:56:19,628860.0,0.0,0.0
12:56:19,628901.0,0.0,0.0
12:56:19,628828.0,0.0,0.0
12:56:19,629027.0,0.0,0.0
12:56:19,628886.0,0.0,0.0
12:56:19,628914.0,0.0,0.0
12:56:19,628943.0,0.0,0.0
12:56:19,628823.0,0.0,0.0
12:56:19,628968.0,0.0,0.0
12:56:19,628803.0,0.0,0.0
12:56:19,628773.0,0.0,0.0
12:56:19,628716.0,0.0,0.0
12:56:19,628672.0,0.0,0.0
12:56:19,628860.0,0.0,0.0
12:56:19,628729.0,0.0,0.0
12:56:19,628936.0,0.0,0.0
12:56:19,629014.0,0.0,0.0
12:56:19,628861.0,0.0,0.0
12:56:19,629027.0,0.0,0.0
12:56:19,628986.0,0.0,0.0
12:56:19,629127.0,0.0,0.0
12:56:19,629198.0,0.0,0.0
12:56:20,629170.0,0.0,0.0
12:56:20,629558.0,0.0,0.0
12:56:20,629579.0,0.0,0.0
12:56:20,629703.0,0.0,0.0
12:56:20,629656.0,0.0,0.0
12:56:20,629521.0,0.0,0.0
12:56:20,629733.0,0.0,0.0
12:56:20,629684.0,0.0,0.0
12:56:20,629833.0,0.0,0.0
12:56:20,629875.0,0.0,0.0
12:56:20,629789.0,0.0,0.0
12:56:20,629951.0,0.0,0.0
12:56:20,629851.0,0.0,0.0
12:56:20,630008.0,0.0,0.0
12:56:20,630065.0,0.0,0.0
12:56:20,630078.0,0.0,0.0
12:56:20,630302.0,0.0,0.0
12:56:20,630311.0,0.0,0.0
12:56:20,630540.0,0.0,0.0
12:56:20,630654.0,0.0,0.0
12:56:20,630509.0,0.0,0.0
12:56:20,630702.0,0.0,0.0
12:56:20,630661.0,0.0,0.0
12:56:20,630764.0,0.0,0.0
12:56:20,630859.0,0.0,0.0
12:56:20,630648.0,0.0,0.0
12:56:20,630729.0,0.0,0.0
12:56:20,630433.0,0.0,0.0
12:56:20,630408.0,0.0,0.0
12:56:20,630661.0,0.0,0.0
12:56:20,630761.0,0.0,0.0
12:56:20,630981.0,0.0,0.0
12:56:20,630789.0,0.0,0.0
12:56:20,630826.0,0.0,0.0
12:56:20,630989.0,0.0,0.0
12:56:20,630916.0,0.0,0.0
12:56:20,631001.0,0.0,0.0
12:56:20,630811.0,0.0,0.0
12:56:20,630887.0,0.0,0.0
12:56:20,631020.0,0.0,0.0
12:56:20,631096.0,0.0,0.0
12:56:20,631186.0,0.0,0.0
12:56:20,630905.0,0.0,0.0
12:56:20,630803.0,0.0,0.0
12:56:20,630818.0,0.0,0.0
12:56:20,630737.0,0.0,0.0
12:56:20,630857.0,0.0,0.0
12:56:20,630740.0,0.0,0.0
12:56:20,630776.0,0.0,0.0
12:56:20,630774.0,0.0,0.0
12:56:20,630803.0,0.0,0.0
12:56:20,631010.0,0.0,0.0
12:56:20,630838.0,0.0,0.0
12:56:20,630908.0,0.0,0.0
12:56:20,630999.0,0.0,0.0
12:56:20,630803.0,0.0,0.0
12:56:20,630796.0,0.0,0.0
12:56:20,630751.0,0.0,0.0
12:56:20,630978.0,0.0,0.0
12:56:20,631138.0,0.0,0.0
12:56:20,630803.0,0.0,0.0
12:56:20,630803.0,0.0,0.0
12:56:20,630716.0,0.0,0.0
12:56:20,630888.0,0.0,0.0
12:56:20,630986.0,0.0,0.0
12:56:20,630879.0,0.0,0.0
12:56:20,630825.0,0.0,0.0
12:56:20,630639.0,0.0,0.0
12:56:20,630599.0,0.0,0.0
12:56:20,630469.0,0.0,0.0
12:56:20,630263.0,0.0,0.0
12:56:20,630254.0,0.0,0.0
12:56:20,629989.0,0.0,0.0
12:56:20,629988.0,0.0,0.0
12:56:20,629943.0,0.0,0.0
12:56:20,629794.0,0.0,0.0
12:56:20,629844.0,0.0,0.0
12:56:20,629614.0,0.0,0.0
12:56:20,629578.0,0.0,0.0
12:56:20,629479.0,0.0,0.0
12:56:20,629328.0,0.0,0.0
12:56:20,629448.0,0.0,0.0
12:56:20,629348.0,0.0,0.0
12:56:20,629453.0,0.0,0.0
12:56:20,629538.0,0.0,0.0
12:56:20,629498.0,0.0,0.0
12:56:20,629708.0,0.0,0.0
12:56:20,629653.0,0.0,0.0
12:56:20,629761.0,0.0,0.0
12:56:20,629701.0,0.0,0.0
12:56:20,629519.0,0.0,0.0
12:56:20,629506.0,0.0,0.0
12:56:20,629196.0,0.0,0.0
12:56:20,629118.0,0.0,0.0
12:56:20,628999.0,0.0,0.0
12:56:20,628903.0,0.0,0.0
12:56:20,628961.0,0.0,0.0
12:56:20,628744.0,0.0,0.0
12:56:20,628889.0,0.0,0.0
12:56:20,628909.0,0.0,0.0
12:56:20,628955.0,0.0,0.0
12:56:20,629099.0,0.0,0.0
12:56:20,628866.0,0.0,0.0
12:56:20,628962.0,0.0,0.0
12:56:20,629033.0,0.0,0.0
12:56:20,629051.0,0.0,0.0
12:56:20,629185.0,0.0,0.0
12:56:20,628964.0,0.0,0.0
12:56:20,629066.0,0.0,0.0
12:56:20,629148.0,0.0,0.0
12:56:20,629149.0,0.0,0.0
12:56:20,629318.0,0.0,0.0
12:56:20,628948.0,0.0,0.0
12:56:20,628791.0,0.0,0.0
12:56:20,628722.0,0.0,0.0
12:56:20,628713.0,0.0,0.0
12:56:20,628853.0,0.0,0.0
12:56:20,628664.0,0.0,0.0
12:56:20,628640.0,0.0,0.0
12:56:20,628533.0,0.0,0.0
12:56:20,628321.0,0.0,0.0
12:56:20,628341.0,0.0,0.0
12:56:20,628243.0,0.0,0.0
12:56:20,628251.0,0.0,0.0
12:56:21,628104.0,0.0,0.0
12:56:21,627959.0,0.0,0.0
12:56:21,628081.0,0.0,0.0
12:56:21,627915.0,0.0,0.0
12:56:21,627977.0,0.0,0.0
12:56:21,628043.0,0.0,0.0
12:56:21,628000.0,0.0,0.0
12:56:21,628141.0,0.0,0.0
12:56:21,628028.0,0.0,0.0
12:56:21,628090.0,0.0,0.0
12:56:21,628171.0,0.0,0.0
12:56:21,628203.0,0.0,0.0
12:56:21,628444.0,0.0,0.0
12:56:21,628442.0,0.0,0.0
12:56:21,628598.0,0.0,0.0
12:56:21,628656.0,0.0,0.0
12:56:21,628611.0,0.0,0.0
12:56:21,628771.0,0.0,0.0
12:56:21,628688.0,0.0,0.0
12:56:21,628791.0,0.0,0.0
12:56:21,628824.0,0.0,0.0
12:56:21,628783.0,0.0,0.0
12:56:21,628916.0,0.0,0.0
12:56:21,628840.0,0.0,0.0
12:56:21,628933.0,0.0,0.0
12:56:21,628973.0,0.0,0.0
12:56:21,628916.0,0.0,0.0
12:56:21,629018.0,0.0,0.0
12:56:21,628926.0,0.0,0.0
12:56:21,629006.0,0.0,0.0
12:56:21,628934.0,0.0,0.0
12:56:21,628845.0,0.0,0.0
12:56:21,628938.0,0.0,0.0
12:56:21,628818.0,0.0,0.0
12:56:21,628864.0,0.0,0.0
12:56:21,628839.0,0.0,0.0
12:56:21,628774.0,0.0,0.0
12:56:21,628878.0,0.0,0.0
12:56:21,628781.0,0.0,0.0
12:56:21,628830.0,0.0,0.0
12:56:21,628789.0,0.0,0.0
12:56:21,628698.0,0.0,0.0
12:56:21,628771.0,0.0,0.0
12:56:21,628552.0,0.0,0.0
12:56:21,628570.0,0.0,0.0
12:56:21,628497.0,0.0,0.0
12:56:21,628362.0,0.0,0.0
12:56:21,628384.0,0.0,0.0
12:56:21,628189.0,0.0,0.0
12:56:21,628187.0,0.0,0.0
12:56:21,628040.0,0.0,0.0
12:56:21,627893.0,0.0,0.0
12:56:21,627968.0,0.0,0.0
12:56:21,627872.0,0.0,0.0
12:56:21,627861.0,0.0,0.0
12:56:21,627586.0,0.0,0.0
12:56:21,627308.0,0.0,0.0
12:56:21,627344.0,0.0,0.0
12:56:21,627291.0,0.0,0.0
12:56:21,627419.0,0.0,0.0
12:56:21,627423.0,0.0,0.0
12:56:21,627398.0,0.0,0.0
12:56:21,627538.0,0.0,0.0
12:56:21,627472.0,0.0,0.0
12:56:21,627592.0,0.0,0.0
12:56:21,627616.0,0.0,0.0
12:56:21,627668.0,0.0,0.0
12:56:21,627893.0,0.0,0.0
12:56:21,627628.0,0.0,0.0
12:56:21,627319.0,0.0,0.0
12:56:21,627131.0,0.0,0.0
12:56:21,626818.0,0.0,0.0
12:56:21,626706.0,0.0,0.0
12:56:21,626543.0,0.0,0.0
12:56:21,626509.0,0.0,0.0
12:56:21,626437.0,0.0,0.0
12:56:21,626398.0,0.0,0.0
12:56:21,626531.0,0.0,0.0
12:56:21,626416.0,0.0,0.0
12:56:21,626394.0,0.0,0.0
12:56:21,626428.0,0.0,0.0
12:56:21,626623.0,0.0,0.0
12:56:21,626878.0,0.0,0.0
12:56:21,626733.0,0.0,0.0
12:56:21,626863.0,0.0,0.0
12:56:21,626865.0,0.0,0.0
12:56:21,626884.0,0.0,0.0
12:56:21,627075.0,0.0,0.0
12:56:21,626984.0,0.0,0.0
12:56:21,626999.0,0.0,0.0
12:56:21,627000.0,0.0,0.0
12:56:21,626931.0,0.0,0.0
12:56:21,626940.0,0.0,0.0
12:56:21,626840.0,0.0,0.0
12:56:21,626875.0,0.0,0.0
12:56:21,626924.0,0.0,0.0
12:56:21,626817.0,0.0,0.0
12:56:21,626849.0,0.0,0.0
12:56:21,626801.0,0.0,0.0
12:56:21,626828.0,0.0,0.0
12:56:21,626880.0,0.0,0.0
12:56:21,626767.0,0.0,0.0
12:56:21,626773.0,0.0,0.0
12:56:21,626751.0,0.0,0.0
12:56:21,626749.0,0.0,0.0
12:56:21,626786.0,0.0,0.0
12:56:21,626674.0,0.0,0.0
12:56:21,626734.0,0.0,0.0
12:56:21,626682.0,0.0,0.0
12:56:21,626723.0,0.0,0.0
12:56:21,626773.0,0.0,0.0
12:56:21,626658.0,0.0,0.0
12:56:21,626750.0,0.0,0.0
12:56:21,626679.0,0.0,0.0
12:56:21,626668.0,0.0,0.0
12:56:21,626718.0,0.0,0.0
12:56:21,626655.0,0.0,0.0
12:56:21,626744.0,0.0,0.0
12:56:21,626604.0,0.0,0.0
12:56:21,626531.0,0.0,0.0
12:56:21,626434.0,0.0,0.0
12:56:21,626281.0,0.0,0.0
12:56:21,626428.0,0.0,0.0
12:56:21,626449.0,0.0,0.0
12:56:21,626416.0,0.0,0.0
12:56:22,626325.0,0.0,0.0
12:56:22,626134.0,0.0,0.0
12:56:22,626233.0,0.0,0.0
12:56:22,626288.0,0.0,0.0
12:56:22,626589.0,0.0,0.0
12:56:22,626986.0,0.0,0.0
12:56:22,627216.0,0.0,0.0
12:56:22,627557.0,0.0,0.0
12:56:22,627689.0,0.0,0.0
12:56:22,627948.0,0.0,0.0
12:56:22,628301.0,0.0,0.0
12:56:22,628304.0,0.0,0.0
12:56:22,628233.0,0.0,0.0
12:56:22,628001.0,0.0,0.0
12:56:22,627759.0,0.0,0.0
12:56:22,627623.0,0.0,0.0
12:56:22,627359.0,0.0,0.0
12:56:22,627286.0,0.0,0.0
12:56:22,627114.0,0.0,0.0
12:56:22,627001.0,0.0,0.0
12:56:22,626831.0,0.0,0.0
12:56:22,626568.0,0.0,0.0
12:56:22,626499.0,0.0,0.0
12:56:22,626304.0,0.0,0.0
12:56:22,626244.0,0.0,0.0
12:56:22,626206.0,0.0,0.0
12:56:22,626101.0,0.0,0.0
12:56:22,626051.0,0.0,0.0
12:56:22,625844.0,0.0,0.0
12:56:22,625720.0,0.0,0.0
12:56:22,625730.0,0.0,0.0
12:56:22,625894.0,0.0,0.0
12:56:22,625971.0,0.0,0.0
12:56:22,625993.0,0.0,0.0
12:56:22,626101.0,0.0,0.0
12:56:22,626199.0,0.0,0.0
12:56:22,626348.0,0.0,0.0
12:56:22,626506.0,0.0,0.0
12:56:22,626563.0,0.0,0.0
12:56:22,626806.0,0.0,0.0
12:56:22,626869.0,0.0,0.0
12:56:22,626824.0,0.0,0.0
12:56:22,626871.0,0.0,0.0
12:56:22,626910.0,0.0,0.0
12:56:22,627111.0,0.0,0.0
12:56:22,627098.0,0.0,0.0
12:56:22,627089.0,0.0,0.0
12:56:22,627209.0,0.0,0.0
12:56:22,627185.0,0.0,0.0
12:56:22,627222.0,0.0,0.0
12:56:22,627274.0,0.0,0.0
12:56:22,627356.0,0.0,0.0
12:56:22,627284.0,0.0,0.0
12:56:22,627324.0,0.0,0.0
12:56:22,627500.0,0.0,0.0
12:56:22,627413.0,0.0,0.0
12:56:22,627303.0,0.0,0.0
12:56:22,627283.0,0.0,0.0
12:56:22,627198.0,0.0,0.0
12:56:22,627213.0,0.0,0.0
12:56:22,627083.0,0.0,0.0
12:56:22,627060.0,0.0,0.0
12:56:22,627039.0,0.0,0.0
12:56:22,626858.0,0.0,0.0
12:56:22,626879.0,0.0,0.0
12:56:22,626867.0,0.0,0.0
12:56:22,626962.0,0.0,0.0
12:56:22,627048.0,0.0,0.0
12:56:22,626940.0,0.0,0.0
12:56:22,626986.0,0.0,0.0
12:56:22,626849.0,0.0,0.0
12:56:22,626811.0,0.0,0.0
12:56:22,626831.0,0.0,0.0
12:56:22,626704.0,0.0,0.0
12:56:22,626824.0,0.0,0.0
12:56:22,626735.0,0.0,0.0
12:56:22,626762.0,0.0,0.0
12:56:22,626877.0,0.0,0.0
12:56:22,626808.0,0.0,0.0
12:56:22,626973.0,0.0,0.0
12:56:22,626917.0,0.0,0.0
12:56:22,627043.0,0.0,0.0
12:56:22,627173.0,0.0,0.0
12:56:22,627082.0,0.0,0.0
12:56:22,627096.0,0.0,0.0
12:56:22,626949.0,0.0,0.0
12:56:22,627150.0,0.0,0.0
12:56:22,627446.0,0.0,0.0
12:56:22,627459.0,0.0,0.0
12:56:22,627404.0,0.0,0.0
12:56:22,627245.0,0.0,0.0
12:56:22,627319.0,0.0,0.0
12:56:22,627492.0,0.0,0.0
12:56:22,627453.0,0.0,0.0
12:56:22,627648.0,0.0,0.0
12:56:22,627601.0,0.0,0.0
12:56:22,627674.0,0.0,0.0
12:56:22,627792.0,0.0,0.0
12:56:22,627766.0,0.0,0.0
12:56:22,627881.0,0.0,0.0
12:56:22,627805.0,0.0,0.0
12:56:22,627788.0,0.0,0.0
12:56:22,627818.0,0.0,0.0
12:56:22,627739.0,0.0,0.0
12:56:22,627806.0,0.0,0.0
12:56:22,627676.0,0.0,0.0
12:56:22,627633.0,0.0,0.0
12:56:22,627566.0,0.0,0.0
12:56:22,627340.0,0.0,0.0
12:56:22,627364.0,0.0,0.0
12:56:22,627174.0,0.0,0.0
12:56:22,626976.0,0.0,0.0
12:56:22,626665.0,0.0,0.0
12:56:22,626158.0,0.0,0.0
12:56:22,625981.0,0.0,0.0
12:56:22,625760.0,0.0,0.0
12:56:22,625685.0,0.0,0.0
12:56:22,625600.0,0.0,0.0
12:56:22,625318.0,0.0,0.0
12:56:22,625222.0,0.0,0.0
12:56:22,624936.0,0.0,0.0
12:56:22,624848.0,0.0,0.0
12:56:22,624946.0,0.0,0.0
12:56:22,624939.0,0.0,0.0
12:56:22,625123.0,0.0,0.0
12:56:23,624979.0,0.0,0.0
12:56:23,624924.0,0.0,0.0
12:56:23,624861.0,0.0,0.0
12:56:23,624588.0,0.0,0.0
12:56:23,624547.0,0.0,0.0
12:56:23,624308.0,0.0,0.0
12:56:23,624289.0,0.0,0.0
12:56:23,624458.0,0.0,0.0
12:56:23,624172.0,0.0,0.0
12:56:23,624141.0,0.0,0.0
12:56:23,623979.0,0.0,0.0
12:56:23,623929.0,0.0,0.0
12:56:23,623851.0,0.0,0.0
12:56:23,623662.0,0.0,0.0
12:56:23,623773.0,0.0,0.0
12:56:23,623723.0,0.0,0.0
12:56:23,623683.0,0.0,0.0
12:56:23,623753.0,0.0,0.0
12:56:23,623747.0,0.0,0.0
12:56:23,623959.0,0.0,0.0
12:56:23,623945.0,0.0,0.0
12:56:23,623914.0,0.0,0.0
12:56:23,623976.0,0.0,0.0
12:56:23,623933.0,0.0,0.0
12:56:23,624158.0,0.0,0.0
12:56:23,624490.0,0.0,0.0
12:56:23,625158.0,0.0,0.0
12:56:23,626049.0,0.0,0.0
12:56:23,626812.0,0.0,0.0
12:56:23,627614.0,0.0,0.0
12:56:23,628183.0,0.0,0.0
12:56:23,628741.0,0.0,0.0
12:56:23,629111.0,0.0,0.0
12:56:23,629312.0,0.0,0.0
12:56:23,629554.0,0.0,0.0
12:56:23,629573.0,0.0,0.0
12:56:23,629756.0,0.0,0.0
12:56:23,629946.0,0.0,0.0
12:56:23,629949.0,0.0,0.0
12:56:23,630094.0,0.0,0.0
12:56:23,630019.0,0.0,0.0
12:56:23,630072.0,0.0,0.0
12:56:23,630138.0,0.0,0.0
12:56:23,630050.0,0.0,0.0
12:56:23,630228.0,0.0,0.0
12:56:23,630074.0,0.0,0.0
12:56:23,630081.0,0.0,0.0
12:56:23,630077.0,0.0,0.0
12:56:23,629953.0,0.0,0.0
12:56:23,630052.0,0.0,0.0
12:56:23,629913.0,0.0,0.0
12:56:23,629876.0,0.0,0.0
12:56:23,629736.0,0.0,0.0
12:56:23,629443.0,0.0,0.0
12:56:23,629318.0,0.0,0.0
12:56:23,629139.0,0.0,0.0
12:56:23,629236.0,0.0,0.0
12:56:23,629318.0,0.0,0.0
12:56:23,629131.0,0.0,0.0
12:56:23,629128.0,0.0,0.0
12:56:23,629045.0,0.0,0.0
12:56:23,629169.0,0.0,0.0
12:56:23,629326.0,0.0,0.0
12:56:23,629351.0,0.0,0.0
12:56:23,629533.0,0.0,0.0
12:56:23,629476.0,0.0,0.0
12:56:23,629596.0,0.0,0.0
12:56:23,629664.0,0.0,0.0
12:56:23,629619.0,0.0,0.0
12:56:23,629808.0,0.0,0.0
12:56:23,629753.0,0.0,0.0
12:56:23,629868.0,0.0,0.0
12:56:23,629924.0,0.0,0.0
12:56:23,629896.0,0.0,0.0
12:56:23,630146.0,0.0,0.0
12:56:23,630102.0,0.0,0.0
12:56:23,630221.0,0.0,0.0
12:56:23,630320.0,0.0,0.0
12:56:23,630319.0,0.0,0.0
12:56:23,630526.0,0.0,0.0
12:56:23,630485.0,0.0,0.0
12:56:23,630633.0,0.0,0.0
12:56:23,630704.0,0.0,0.0
12:56:23,630683.0,0.0,0.0
12:56:23,630860.0,0.0,0.0
12:56:23,630791.0,0.0,0.0
12:56:23,630953.0,0.0,0.0
12:56:23,631026.0,0.0,0.0
12:56:23,630955.0,0.0,0.0
12:56:23,631034.0,0.0,0.0
12:56:23,630930.0,0.0,0.0
12:56:23,631014.0,0.0,0.0
12:56:23,631036.0,0.0,0.0
12:56:23,630848.0,0.0,0.0
12:56:23,630643.0,0.0,0.0
12:56:23,630271.0,0.0,0.0
12:56:23,630227.0,0.0,0.0
12:56:23,630263.0,0.0,0.0
12:56:23,630153.0,0.0,0.0
12:56:23,629969.0,0.0,0.0
12:56:23,629509.0,0.0,0.0
12:56:23,629336.0,0.0,0.0
12:56:23,629214.0,0.0,0.0
12:56:23,628942.0,0.0,0.0
12:56:23,628781.0,0.0,0.0
12:56:23,628399.0,0.0,0.0
12:56:23,628229.0,0.0,0.0
12:56:23,627994.0,0.0,0.0
12:56:23,627683.0,0.0,0.0
12:56:23,627643.0,0.0,0.0
12:56:23,627436.0,0.0,0.0
12:56:23,627604.0,0.0,0.0
12:56:23,627912.0,0.0,0.0
12:56:23,628149.0,0.0,0.0
12:56:23,628603.0,0.0,0.0
12:56:23,628830.0,0.0,0.0
12:56:23,629251.0,0.0,0.0
12:56:23,629546.0,0.0,0.0
12:56:23,629708.0,0.0,0.0
12:56:23,629991.0,0.0,0.0
12:56:23,630120.0,0.0,0.0
12:56:23,630418.0,0.0,0.0
12:56:23,630526.0,0.0,0.0
12:56:23,630526.0,0.0,0.0
12:56:23,630561.0,0.0,0.0
12:56:24,630314.0,0.0,0.0
12:56:24,630403.0,0.0,0.0
12:56:24,630398.0,0.0,0.0
12:56:24,630284.0,0.0,0.0
12:56:24,630324.0,0.0,0.0
12:56:24,630143.0,0.0,0.0
12:56:24,630149.0,0.0,0.0
12:56:24,630069.0,0.0,0.0
12:56:24,629923.0,0.0,0.0
12:56:24,629993.0,0.0,0.0
12:56:24,629901.0,0.0,0.0
12:56:24,630071.0,0.0,0.0
12:56:24,630113.0,0.0,0.0
12:56:24,630089.0,0.0,0.0
12:56:24,630262.0,0.0,0.0
12:56:24,630151.0,0.0,0.0
12:56:24,630250.0,0.0,0.0
12:56:24,630398.0,0.0,0.0
12:56:24,630620.0,0.0,0.0
12:56:24,630993.0,0.0,0.0
12:56:24,630972.0,0.0,0.0
12:56:24,631016.0,0.0,0.0
12:56:24,630968.0,0.0,0.0
12:56:24,630874.0,0.0,0.0
12:56:24,630999.0,0.0,0.0
12:56:24,630818.0,0.0,0.0
12:56:24,630749.0,0.0,0.0
12:56:24,630714.0,0.0,0.0
12:56:24,630676.0,0.0,0.0
12:56:24,630797.0,0.0,0.0
12:56:24,630700.0,0.0,0.0
12:56:24,630786.0,0.0,0.0
12:56:24,630768.0,0.0,0.0
12:56:24,630786.0,0.0,0.0
12:56:24,630693.0,0.0,0.0
12:56:24,630203.0,0.0,0.0
12:56:24,630318.0,0.0,0.0
12:56:24,630367.0,0.0,0.0
12:56:24,630157.0,0.0,0.0
12:56:24,630209.0,0.0,0.0
12:56:24,630263.0,0.0,0.0
12:56:24,630506.0,0.0,0.0
12:56:24,630353.0,0.0,0.0
12:56:24,630164.0,0.0,0.0
12:56:24,630320.0,0.0,0.0
12:56:24,630275.0,0.0,0.0
12:56:24,630417.0,0.0,0.0
12:56:24,630427.0,0.0,0.0
12:56:24,630328.0,0.0,0.0
12:56:24,630401.0,0.0,0.0
12:56:24,630249.0,0.0,0.0
12:56:24,630313.0,0.0,0.0
12:56:24,630318.0,0.0,0.0
12:56:24,630298.0,0.0,0.0
12:56:24,630379.0,0.0,0.0
12:56:24,630231.0,0.0,0.0
12:56:24,630249.0,0.0,0.0
12:56:24,630154.0,0.0,0.0
12:56:24,630069.0,0.0,0.0
12:56:24,630176.0,0.0,0.0
12:56:24,630001.0,0.0,0.0
12:56:24,629965.0,0.0,0.0
12:56:24,629830.0,0.0,0.0
12:56:24,629671.0,0.0,0.0
12:56:24,629624.0,0.0,0.0
12:56:24,629301.0,0.0,0.0
12:56:24,629148.0,0.0,0.0
12:56:24,628896.0,0.0,0.0
12:56:24,628721.0,0.0,0.0
12:56:24,628787.0,0.0,0.0
12:56:24,628701.0,0.0,0.0
12:56:24,628875.0,0.0,0.0
12:56:24,628963.0,0.0,0.0
12:56:24,629044.0,0.0,0.0
12:56:24,629273.0,0.0,0.0
12:56:24,629191.0,0.0,0.0
12:56:24,629335.0,0.0,0.0
12:56:24,629261.0,0.0,0.0
12:56:24,629149.0,0.0,0.0
12:56:24,629148.0,0.0,0.0
12:56:24,628991.0,0.0,0.0
12:56:24,628993.0,0.0,0.0
12:56:24,628783.0,0.0,0.0
12:56:24,628582.0,0.0,0.0
12:56:24,628586.0,0.0,0.0
12:56:24,628400.0,0.0,0.0
12:56:24,628448.0,0.0,0.0
12:56:24,628457.0,0.0,0.0
12:56:24,628632.0,0.0,0.0
12:56:24,628948.0,0.0,0.0
12:56:24,628981.0,0.0,0.0
12:56:24,629310.0,0.0,0.0
12:56:24,629394.0,0.0,0.0
12:56:24,629494.0,0.0,0.0
12:56:24,629725.0,0.0,0.0
12:56:24,629652.0,0.0,0.0
12:56:24,629856.0,0.0,0.0
12:56:24,629993.0,0.0,0.0
12:56:24,630155.0,0.0,0.0
12:56:24,630436.0,0.0,0.0
12:56:24,630396.0,0.0,0.0
12:56:24,630509.0,0.0,0.0
12:56:24,630563.0,0.0,0.0
12:56:24,630628.0,0.0,0.0
12:56:24,630812.0,0.0,0.0
12:56:24,630721.0,0.0,0.0
12:56:24,630856.0,0.0,0.0
12:56:24,630824.0,0.0,0.0
12:56:24,630856.0,0.0,0.0
12:56:24,631084.0,0.0,0.0
12:56:24,631128.0,0.0,0.0
12:56:24,631469.0,0.0,0.0
12:56:24,631516.0,0.0,0.0
12:56:24,631502.0,0.0,0.0
12:56:24,631522.0,0.0,0.0
12:56:24,631221.0,0.0,0.0
12:56:24,631073.0,0.0,0.0
12:56:24,630695.0,0.0,0.0
12:56:24,630217.0,0.0,0.0
12:56:24,629868.0,0.0,0.0
12:56:24,629378.0,0.0,0.0
12:56:24,629134.0,0.0,0.0
12:56:24,628797.0,0.0,0.0
12:56:24,628540.0,0.0,0.0
12:56:24,628489.0,0.0,0.0
12:56:25,628277.0,0.0,0.0
12:56:25,628443.0,0.0,0.0
12:56:25,628549.0,0.0,0.0
12:56:25,628672.0,0.0,0.0
12:56:25,628992.0,0.0,0.0
12:56:25,629109.0,0.0,0.0
12:56:25,629485.0,0.0,0.0
12:56:25,629688.0,0.0,0.0
12:56:25,629830.0,0.0,0.0
12:56:25,629999.0,0.0,0.0
12:56:25,629929.0,0.0,0.0
12:56:25,629962.0,0.0,0.0
12:56:25,629818.0,0.0,0.0
12:56:25,629705.0,0.0,0.0
12:56:25,629636.0,0.0,0.0
12:56:25,629419.0,0.0,0.0
12:56:25,629621.0,0.0,0.0
12:56:25,629523.0,0.0,0.0
12:56:25,629389.0,0.0,0.0
12:56:25,629388.0,0.0,0.0
12:56:25,629197.0,0.0,0.0
12:56:25,629199.0,0.0,0.0
12:56:25,629084.0,0.0,0.0
12:56:25,629034.0,0.0,0.0
12:56:25,628986.0,0.0,0.0
12:56:25,628763.0,0.0,0.0
12:56:25,628630.0,0.0,0.0
12:56:25,628526.0,0.0,0.0
12:56:25,628509.0,0.0,0.0
12:56:25,628591.0,0.0,0.0
12:56:25,628533.0,0.0,0.0
12:56:25,628633.0,0.0,0.0
12:56:25,628696.0,0.0,0.0
12:56:25,628723.0,0.0,0.0
12:56:25,628714.0,0.0,0.0
12:56:25,628606.0,0.0,0.0
12:56:25,628640.0,0.0,0.0
12:56:25,628628.0,0.0,0.0
12:56:25,628663.0,0.0,0.0
12:56:25,628753.0,0.0,0.0
12:56:25,628611.0,0.0,0.0
12:56:25,628561.0,0.0,0.0
12:56:25,628319.0,0.0,0.0
12:56:25,628038.0,0.0,0.0
12:56:25,627836.0,0.0,0.0
12:56:25,627364.0,0.0,0.0
12:56:25,627099.0,0.0,0.0
12:56:25,626816.0,0.0,0.0
12:56:25,626278.0,0.0,0.0
12:56:25,625879.0,0.0,0.0
12:56:25,625739.0,0.0,0.0
12:56:25,625913.0,0.0,0.0
12:56:25,626308.0,0.0,0.0
12:56:25,626898.0,0.0,0.0
12:56:25,627389.0,0.0,0.0
12:56:25,627536.0,0.0,0.0
12:56:25,627787.0,0.0,0.0
12:56:25,627786.0,0.0,0.0
12:56:25,627781.0,0.0,0.0
12:56:25,627966.0,0.0,0.0
12:56:25,627975.0,0.0,0.0
12:56:25,628183.0,0.0,0.0
12:56:25,628168.0,0.0,0.0
12:56:25,628118.0,0.0,0.0
12:56:25,628196.0,0.0,0.0
12:56:25,628099.0,0.0,0.0
12:56:25,628316.0,0.0,0.0
12:56:25,628308.0,0.0,0.0
12:56:25,628330.0,0.0,0.0
12:56:25,628610.0,0.0,0.0
12:56:25,628593.0,0.0,0.0
12:56:25,628684.0,0.0,0.0
12:56:25,628527.0,0.0,0.0
12:56:25,628483.0,0.0,0.0
12:56:25,628578.0,0.0,0.0
12:56:25,628636.0,0.0,0.0
12:56:25,628881.0,0.0,0.0
12:56:25,628794.0,0.0,0.0
12:56:25,628814.0,0.0,0.0
12:56:25,628988.0,0.0,0.0
12:56:25,628948.0,0.0,0.0
12:56:25,629016.0,0.0,0.0
12:56:25,628834.0,0.0,0.0
12:56:25,628669.0,0.0,0.0
12:56:25,628606.0,0.0,0.0
12:56:25,628366.0,0.0,0.0
12:56:25,628341.0,0.0,0.0
12:56:25,628115.0,0.0,0.0
12:56:25,627972.0,0.0,0.0
12:56:25,627899.0,0.0,0.0
12:56:25,627636.0,0.0,0.0
12:56:25,627680.0,0.0,0.0
12:56:25,627591.0,0.0,0.0
12:56:25,627650.0,0.0,0.0
12:56:25,627904.0,0.0,0.0
12:56:25,627933.0,0.0,0.0
12:56:25,628154.0,0.0,0.0
12:56:25,628079.0,0.0,0.0
12:56:25,628073.0,0.0,0.0
12:56:25,628151.0,0.0,0.0
12:56:25,627956.0,0.0,0.0
12:56:25,628001.0,0.0,0.0
12:56:25,627820.0,0.0,0.0
12:56:25,627650.0,0.0,0.0
12:56:25,627539.0,0.0,0.0
12:56:25,627250.0,0.0,0.0
12:56:25,627221.0,0.0,0.0
12:56:25,627009.0,0.0,0.0
12:56:25,626905.0,0.0,0.0
12:56:25,626929.0,0.0,0.0
12:56:25,626729.0,0.0,0.0
12:56:25,626804.0,0.0,0.0
12:56:25,626647.0,0.0,0.0
12:56:25,626634.0,0.0,0.0
12:56:25,626709.0,0.0,0.0
12:56:25,626483.0,0.0,0.0
12:56:25,626555.0,0.0,0.0
12:56:25,626368.0,0.0,0.0
12:56:25,626314.0,0.0,0.0
12:56:25,626433.0,0.0,0.0
12:56:25,626216.0,0.0,0.0
12:56:25,626348.0,0.0,0.0
12:56:25,626145.0,0.0,0.0
12:56:25,626125.0,0.0,0.0
12:56:25,626184.0,0.0,0.0
12:56:26,625923.0,0.0,0.0
12:56:26,626115.0,0.0,0.0
12:56:26,625958.0,0.0,0.0
12:56:26,625964.0,0.0,0.0
12:56:26,626119.0,0.0,0.0
12:56:26,625968.0,0.0,0.0
12:56:26,626355.0,0.0,0.0
12:56:26,626207.0,0.0,0.0
12:56:26,625964.0,0.0,0.0
12:56:26,625989.0,0.0,0.0
12:56:26,625541.0,0.0,0.0
12:56:26,625838.0,0.0,0.0
12:56:26,625538.0,0.0,0.0
12:56:26,625443.0,0.0,0.0
12:56:26,625506.0,0.0,0.0
12:56:26,624953.0,0.0,0.0
12:56:26,625126.0,0.0,0.0
12:56:26,624769.0,0.0,0.0
12:56:26,624624.0,0.0,0.0
12:56:26,624629.0,0.0,0.0
12:56:26,624162.0,0.0,0.0
12:56:26,624351.0,0.0,0.0
12:56:26,623903.0,0.0,0.0
12:56:26,623805.0,0.0,0.0
12:56:26,623828.0,0.0,0.0
12:56:26,623499.0,0.0,0.0
12:56:26,623811.0,0.0,0.0
12:56:26,623543.0,0.0,0.0
12:56:26,623676.0,0.0,0.0
12:56:26,623883.0,0.0,0.0
12:56:26,623776.0,0.0,0.0
12:56:26,624249.0,0.0,0.0
12:56:26,624042.0,0.0,0.0
12:56:26,624219.0,0.0,0.0
12:56:26,624556.0,0.0,0.0
12:56:26,624343.0,0.0,0.0
12:56:26,624799.0,0.0,0.0
12:56:26,624543.0,0.0,0.0
12:56:26,624659.0,0.0,0.0
12:56:26,624817.0,0.0,0.0
12:56:26,624523.0,0.0,0.0
12:56:26,625024.0,0.0,0.0
12:56:26,624787.0,0.0,0.0
12:56:26,624931.0,0.0,0.0
12:56:26,625091.0,0.0,0.0
12:56:26,624751.0,0.0,0.0
12:56:26,625196.0,0.0,0.0
12:56:26,624871.0,0.0,0.0
12:56:26,625033.0,0.0,0.0
12:56:26,625263.0,0.0,0.0
12:56:26,624931.0,0.0,0.0
12:56:26,625414.0,0.0,0.0
12:56:26,625091.0,0.0,0.0
12:56:26,625211.0,0.0,0.0
12:56:26,625411.0,0.0,0.0
12:56:26,625076.0,0.0,0.0
12:56:26,625579.0,0.0,0.0
12:56:26,625244.0,0.0,0.0
12:56:26,625348.0,0.0,0.0
12:56:26,625589.0,0.0,0.0
12:56:26,625182.0,0.0,0.0
12:56:26,625615.0,0.0,0.0
12:56:26,625286.0,0.0,0.0
12:56:26,625385.0,0.0,0.0
12:56:26,625661.0,0.0,0.0
12:56:26,625291.0,0.0,0.0
12:56:26,625724.0,0.0,0.0
12:56:26,625444.0,0.0,0.0
12:56:26,625547.0,0.0,0.0
12:56:26,625806.0,0.0,0.0
12:56:26,625419.0,0.0,0.0
12:56:26,625891.0,0.0,0.0
12:56:26,625585.0,0.0,0.0
12:56:26,625668.0,0.0,0.0
12:56:26,625844.0,0.0,0.0
12:56:26,625396.0,0.0,0.0
12:56:26,626019.0,0.0,0.0
12:56:26,625749.0,0.0,0.0
12:56:26,625840.0,0.0,0.0
12:56:26,626209.0,0.0,0.0
12:56:26,626061.0,0.0,0.0
12:56:26,626731.0,0.0,0.0
12:56:26,626385.0,0.0,0.0
12:56:26,626293.0,0.0,0.0
12:56:26,626391.0,0.0,0.0
12:56:26,625992.0,0.0,0.0
12:56:26,626423.0,0.0,0.0
12:56:26,626160.0,0.0,0.0
12:56:26,626151.0,0.0,0.0
12:56:26,626299.0,0.0,0.0
12:56:26,625933.0,0.0,0.0
12:56:26,626347.0,0.0,0.0
12:56:26,626023.0,0.0,0.0
12:56:26,626086.0,0.0,0.0
12:56:26,626316.0,0.0,0.0
12:56:26,625956.0,0.0,0.0
12:56:26,626334.0,0.0,0.0
12:56:26,626029.0,0.0,0.0
12:56:26,626081.0,0.0,0.0
12:56:26,626327.0,0.0,0.0
12:56:26,626046.0,0.0,0.0
12:56:26,626509.0,0.0,0.0
12:56:26,626259.0,0.0,0.0
12:56:26,626381.0,0.0,0.0
12:56:26,626587.0,0.0,0.0
12:56:26,626293.0,0.0,0.0
12:56:26,626769.0,0.0,0.0
12:56:26,626504.0,0.0,0.0
12:56:26,626617.0,0.0,0.0
12:56:26,626769.0,0.0,0.0
12:56:26,626415.0,0.0,0.0
12:56:26,626811.0,0.0,0.0
12:56:26,626591.0,0.0,0.0
12:56:26,626689.0,0.0,0.0
12:56:26,626914.0,0.0,0.0
12:56:26,626623.0,0.0,0.0
12:56:26,627021.0,0.0,0.0
12:56:26,626675.0,0.0,0.0
12:56:26,626764.0,0.0,0.0
12:56:26,626899.0,0.0,0.0
12:56:26,626518.0,0.0,0.0
12:56:26,626968.0,0.0,0.0
12:56:26,626691.0,0.0,0.0
12:56:26,626833.0,0.0,0.0
12:56:26,626936.0,0.0,0.0
12:56:27,626569.0,0.0,0.0
12:56:27,626951.0,0.0,0.0
12:56:27,626589.0,0.0,0.0
12:56:27,626738.0,0.0,0.0
12:56:27,626753.0,0.0,0.0
12:56:27,626429.0,0.0,0.0
12:56:27,626896.0,0.0,0.0
12:56:27,626546.0,0.0,0.0
12:56:27,626744.0,0.0,0.0
12:56:27,626833.0,0.0,0.0
12:56:27,626488.0,0.0,0.0
12:56:27,626897.0,0.0,0.0
12:56:27,626559.0,0.0,0.0
12:56:27,626704.0,0.0,0.0
12:56:27,626822.0,0.0,0.0
12:56:27,626510.0,0.0,0.0
12:56:27,626943.0,0.0,0.0
12:56:27,626611.0,0.0,0.0
12:56:27,626743.0,0.0,0.0
12:56:27,626859.0,0.0,0.0
12:56:27,626554.0,0.0,0.0
12:56:27,626953.0,0.0,0.0
12:56:27,626627.0,0.0,0.0
12:56:27,626731.0,0.0,0.0
12:56:27,626851.0,0.0,0.0
12:56:27,626540.0,0.0,0.0
12:56:27,626929.0,0.0,0.0
12:56:27,626619.0,0.0,0.0
12:56:27,626748.0,0.0,0.0
12:56:27,626833.0,0.0,0.0
12:56:27,626556.0,0.0,0.0
12:56:27,627026.0,0.0,0.0
12:56:27,626842.0,0.0,0.0
12:56:27,627153.0,0.0,0.0
12:56:27,627199.0,0.0,0.0
12:56:27,626813.0,0.0,0.0
12:56:27,627090.0,0.0,0.0
12:56:27,626761.0,0.0,0.0
12:56:27,626944.0,0.0,0.0
12:56:27,627071.0,0.0,0.0
12:56:27,626803.0,0.0,0.0
12:56:27,627167.0,0.0,0.0
12:56:27,626808.0,0.0,0.0
12:56:27,626939.0,0.0,0.0
12:56:27,626993.0,0.0,0.0
12:56:27,626748.0,0.0,0.0
12:56:27,627051.0,0.0,0.0
12:56:27,626667.0,0.0,0.0
12:56:27,626794.0,0.0,0.0
12:56:27,626783.0,0.0,0.0
12:56:27,626519.0,0.0,0.0
12:56:27,626879.0,0.0,0.0
12:56:27,626510.0,0.0,0.0
12:56:27,626693.0,0.0,0.0
12:56:27,626717.0,0.0,0.0
12:56:27,626394.0,0.0,0.0
12:56:27,626754.0,0.0,0.0
12:56:27,626415.0,0.0,0.0
12:56:27,626645.0,0.0,0.0
12:56:27,626745.0,0.0,0.0
12:56:27,626487.0,0.0,0.0
12:56:27,626922.0,0.0,0.0
12:56:27,626579.0,0.0,0.0
12:56:27,626774.0,0.0,0.0
12:56:27,626810.0,0.0,0.0
12:56:27,626576.0,0.0,0.0
12:56:27,626991.0,0.0,0.0
12:56:27,626616.0,0.0,0.0
12:56:27,626802.0,0.0,0.0
12:56:27,626853.0,0.0,0.0
12:56:27,626590.0,0.0,0.0
12:56:27,626967.0,0.0,0.0
12:56:27,626603.0,0.0,0.0
12:56:27,626808.0,0.0,0.0
12:56:27,626849.0,0.0,0.0
12:56:27,626590.0,0.0,0.0
12:56:27,627014.0,0.0,0.0
12:56:27,626645.0,0.0,0.0
12:56:27,626853.0,0.0,0.0
12:56:27,626844.0,0.0,0.0
12:56:27,626594.0,0.0,0.0
12:56:27,627020.0,0.0,0.0
12:56:27,626611.0,0.0,0.0
12:56:27,626787.0,0.0,0.0
12:56:27,626803.0,0.0,0.0
12:56:27,626518.0,0.0,0.0
12:56:27,626920.0,0.0,0.0
12:56:27,626501.0,0.0,0.0
12:56:27,626714.0,0.0,0.0
12:56:27,626734.0,0.0,0.0
12:56:27,626466.0,0.0,0.0
12:56:27,626894.0,0.0,0.0
12:56:27,626447.0,0.0,0.0
12:56:27,626636.0,0.0,0.0
12:56:27,626651.0,0.0,0.0
12:56:27,626369.0,0.0,0.0
12:56:27,626759.0,0.0,0.0
12:56:27,626361.0,0.0,0.0
12:56:27,626579.0,0.0,0.0
12:56:27,626565.0,0.0,0.0
12:56:27,626288.0,0.0,0.0
12:56:27,626691.0,0.0,0.0
12:56:27,626323.0,0.0,0.0
12:56:27,626511.0,0.0,0.0
12:56:27,626509.0,0.0,0.0
12:56:27,626177.0,0.0,0.0
12:56:27,626587.0,0.0,0.0
12:56:27,626246.0,0.0,0.0
12:56:27,626524.0,0.0,0.0
12:56:27,626576.0,0.0,0.0
12:56:27,626293.0,0.0,0.0
12:56:27,626626.0,0.0,0.0
12:56:27,626218.0,0.0,0.0
12:56:27,626390.0,0.0,0.0
12:56:27,626394.0,0.0,0.0
12:56:27,626132.0,0.0,0.0
12:56:27,626486.0,0.0,0.0
12:56:27,626178.0,0.0,0.0
12:56:27,626368.0,0.0,0.0
12:56:27,626384.0,0.0,0.0
12:56:27,626228.0,0.0,0.0
12:56:27,626611.0,0.0,0.0
12:56:27,626393.0,0.0,0.0
12:56:27,626736.0,0.0,0.0
12:56:27,626908.0,0.0,0.0
12:56:28,626874.0,0.0,0.0
12:56:28,627177.0,0.0,0.0
12:56:28,626959.0,0.0,0.0
12:56:28,627152.0,0.0,0.0
12:56:28,627182.0,0.0,0.0
12:56:28,627269.0,0.0,0.0
12:56:28,627761.0,0.0,0.0
12:56:28,627801.0,0.0,0.0
12:56:28,628085.0,0.0,0.0
12:56:28,627934.0,0.0,0.0
12:56:28,627843.0,0.0,0.0
12:56:28,628089.0,0.0,0.0
12:56:28,627889.0,0.0,0.0
12:56:28,628133.0,0.0,0.0
12:56:28,628101.0,0.0,0.0
12:56:28,628055.0,0.0,0.0
12:56:28,628219.0,0.0,0.0
12:56:28,627916.0,0.0,0.0
12:56:28,628054.0,0.0,0.0
12:56:28,627889.0,0.0,0.0
12:56:28,627671.0,0.0,0.0
12:56:28,627757.0,0.0,0.0
12:56:28,627364.0,0.0,0.0
12:56:28,627426.0,0.0,0.0
12:56:28,627232.0,0.0,0.0
12:56:28,626973.0,0.0,0.0
12:56:28,627121.0,0.0,0.0
12:56:28,626730.0,0.0,0.0
12:56:28,626878.0,0.0,0.0
12:56:28,626704.0,0.0,0.0
12:56:28,626468.0,0.0,0.0
12:56:28,626751.0,0.0,0.0
12:56:28,626374.0,0.0,0.0
12:56:28,626612.0,0.0,0.0
12:56:28,626543.0,0.0,0.0
12:56:28,626387.0,0.0,0.0
12:56:28,626686.0,0.0,0.0
12:56:28,626346.0,0.0,0.0
12:56:28,626606.0,0.0,0.0
12:56:28,626554.0,0.0,0.0
12:56:28,626414.0,0.0,0.0
12:56:28,626743.0,0.0,0.0
12:56:28,626433.0,0.0,0.0
12:56:28,626681.0,0.0,0.0
12:56:28,626584.0,0.0,0.0
12:56:28,626378.0,0.0,0.0
12:56:28,626641.0,0.0,0.0
12:56:28,626281.0,0.0,0.0
12:56:28,626488.0,0.0,0.0
12:56:28,626386.0,0.0,0.0
12:56:28,626162.0,0.0,0.0
12:56:28,626375.0,0.0,0.0
12:56:28,626046.0,0.0,0.0
12:56:28,626230.0,0.0,0.0
12:56:28,626139.0,0.0,0.0
12:56:28,626025.0,0.0,0.0
12:56:28,626222.0,0.0,0.0
12:56:28,625904.0,0.0,0.0
12:56:28,626122.0,0.0,0.0
12:56:28,626023.0,0.0,0.0
12:56:28,625938.0,0.0,0.0
12:56:28,626160.0,0.0,0.0
12:56:28,625892.0,0.0,0.0
12:56:28,626095.0,0.0,0.0
12:56:28,626007.0,0.0,0.0
12:56:28,625905.0,0.0,0.0
12:56:28,626089.0,0.0,0.0
12:56:28,625793.0,0.0,0.0
12:56:28,625974.0,0.0,0.0
12:56:28,625893.0,0.0,0.0
12:56:28,625796.0,0.0,0.0
12:56:28,626013.0,0.0,0.0
12:56:28,625703.0,0.0,0.0
12:56:28,625878.0,0.0,0.0
12:56:28,625803.0,0.0,0.0
12:56:28,625686.0,0.0,0.0
12:56:28,625898.0,0.0,0.0
12:56:28,625566.0,0.0,0.0
12:56:28,625799.0,0.0,0.0
12:56:28,625683.0,0.0,0.0
12:56:28,625537.0,0.0,0.0
12:56:28,625780.0,0.0,0.0
12:56:28,625449.0,0.0,0.0
12:56:28,625719.0,0.0,0.0
12:56:28,625629.0,0.0,0.0
12:56:28,625464.0,0.0,0.0
12:56:28,625758.0,0.0,0.0
12:56:28,625396.0,0.0,0.0
12:56:28,625683.0,0.0,0.0
12:56:28,625586.0,0.0,0.0
12:56:28,625472.0,0.0,0.0
12:56:28,625782.0,0.0,0.0
12:56:28,625383.0,0.0,0.0
12:56:28,625647.0,0.0,0.0
12:56:28,625541.0,0.0,0.0
12:56:28,625354.0,0.0,0.0
12:56:28,625663.0,0.0,0.0
12:56:28,625321.0,0.0,0.0
12:56:28,625631.0,0.0,0.0
12:56:28,625504.0,0.0,0.0
12:56:28,625341.0,0.0,0.0
12:56:28,625639.0,0.0,0.0
12:56:28,625367.0,0.0,0.0
12:56:28,625824.0,0.0,0.0
12:56:28,625951.0,0.0,0.0
12:56:28,625730.0,0.0,0.0
12:56:28,625764.0,0.0,0.0
12:56:28,625330.0,0.0,0.0
12:56:28,625596.0,0.0,0.0
12:56:28,625514.0,0.0,0.0
12:56:28,625393.0,0.0,0.0
12:56:28,625689.0,0.0,0.0
12:56:28,625345.0,0.0,0.0
12:56:28,625604.0,0.0,0.0
12:56:28,625468.0,0.0,0.0
12:56:28,625359.0,0.0,0.0
12:56:28,625633.0,0.0,0.0
12:56:28,625247.0,0.0,0.0
12:56:28,625483.0,0.0,0.0
12:56:28,625288.0,0.0,0.0
12:56:28,625156.0,0.0,0.0
12:56:28,625396.0,0.0,0.0
12:56:28,625101.0,0.0,0.0
12:56:28,625565.0,0.0,0.0
12:56:28,625554.0,0.0,0.0
12:56:29,625448.0,0.0,0.0
12:56:29,625634.0,0.0,0.0
12:56:29,625217.0,0.0,0.0
12:56:29,625423.0,0.0,0.0
12:56:29,625204.0,0.0,0.0
12:56:29,624997.0,0.0,0.0
12:56:29,625100.0,0.0,0.0
12:56:29,624598.0,0.0,0.0
12:56:29,624684.0,0.0,0.0
12:56:29,624381.0,0.0,0.0
12:56:29,624123.0,0.0,0.0
12:56:29,624285.0,0.0,0.0
12:56:29,623869.0,0.0,0.0
12:56:29,624099.0,0.0,0.0
12:56:29,623955.0,0.0,0.0
12:56:29,623864.0,0.0,0.0
12:56:29,624072.0,0.0,0.0
12:56:29,623713.0,0.0,0.0
12:56:29,623996.0,0.0,0.0
12:56:29,623877.0,0.0,0.0
12:56:29,623824.0,0.0,0.0
12:56:29,624059.0,0.0,0.0
12:56:29,623666.0,0.0,0.0
12:56:29,623847.0,0.0,0.0
12:56:29,623668.0,0.0,0.0
12:56:29,623573.0,0.0,0.0
12:56:29,623771.0,0.0,0.0
12:56:29,623349.0,0.0,0.0
12:56:29,623541.0,0.0,0.0
12:56:29,623336.0,0.0,0.0
12:56:29,623242.0,0.0,0.0
12:56:29,623471.0,0.0,0.0
12:56:29,623136.0,0.0,0.0
12:56:29,623393.0,0.0,0.0
12:56:29,623171.0,0.0,0.0
12:56:29,623063.0,0.0,0.0
12:56:29,623213.0,0.0,0.0
12:56:29,622803.0,0.0,0.0
12:56:29,623014.0,0.0,0.0
12:56:29,622818.0,0.0,0.0
12:56:29,622763.0,0.0,0.0
12:56:29,622961.0,0.0,0.0
12:56:29,622696.0,0.0,0.0
12:56:29,623002.0,0.0,0.0
12:56:29,622968.0,0.0,0.0
12:56:29,623039.0,0.0,0.0
12:56:29,623161.0,0.0,0.0
12:56:29,622876.0,0.0,0.0
12:56:29,623041.0,0.0,0.0
12:56:29,622865.0,0.0,0.0
12:56:29,622889.0,0.0,0.0
12:56:29,623089.0,0.0,0.0
12:56:29,623093.0,0.0,0.0
12:56:29,623451.0,0.0,0.0
12:56:29,623546.0,0.0,0.0
12:56:29,623754.0,0.0,0.0
12:56:29,624005.0,0.0,0.0
12:56:29,623983.0,0.0,0.0
12:56:29,624249.0,0.0,0.0
12:56:29,624197.0,0.0,0.0
12:56:29,624244.0,0.0,0.0
12:56:29,624354.0,0.0,0.0
12:56:29,624183.0,0.0,0.0
12:56:29,624362.0,0.0,0.0
12:56:29,624253.0,0.0,0.0
12:56:29,624143.0,0.0,0.0
12:56:29,624159.0,0.0,0.0
12:56:29,624083.0,0.0,0.0
12:56:29,624423.0,0.0,0.0
12:56:29,624375.0,0.0,0.0
12:56:29,624021.0,0.0,0.0
12:56:29,623849.0,0.0,0.0
12:56:29,623839.0,0.0,0.0
12:56:29,624119.0,0.0,0.0
12:56:29,624064.0,0.0,0.0
12:56:29,624163.0,0.0,0.0
12:56:29,624313.0,0.0,0.0
12:56:29,624235.0,0.0,0.0
12:56:29,624485.0,0.0,0.0
12:56:29,624406.0,0.0,0.0
12:56:29,624499.0,0.0,0.0
12:56:29,624583.0,0.0,0.0
12:56:29,624478.0,0.0,0.0
12:56:29,624700.0,0.0,0.0
12:56:29,624589.0,0.0,0.0
12:56:29,624639.0,0.0,0.0
12:56:29,624704.0,0.0,0.0
12:56:29,624581.0,0.0,0.0
12:56:29,624774.0,0.0,0.0
12:56:29,624689.0,0.0,0.0
12:56:29,624681.0,0.0,0.0
12:56:29,624800.0,0.0,0.0
12:56:29,624655.0,0.0,0.0
12:56:29,624759.0,0.0,0.0
12:56:29,624654.0,0.0,0.0
12:56:29,624662.0,0.0,0.0
12:56:29,624756.0,0.0,0.0
12:56:29,624644.0,0.0,0.0
12:56:29,624809.0,0.0,0.0
12:56:29,624769.0,0.0,0.0
12:56:29,624888.0,0.0,0.0
12:56:29,625049.0,0.0,0.0
12:56:29,624986.0,0.0,0.0
12:56:29,625198.0,0.0,0.0
12:56:29,625139.0,0.0,0.0
12:56:29,625159.0,0.0,0.0
12:56:29,625176.0,0.0,0.0
12:56:29,625047.0,0.0,0.0
12:56:29,625136.0,0.0,0.0
12:56:29,625059.0,0.0,0.0
12:56:29,625108.0,0.0,0.0
12:56:29,625128.0,0.0,0.0
12:56:29,624863.0,0.0,0.0
12:56:29,624933.0,0.0,0.0
12:56:29,624801.0,0.0,0.0
12:56:29,624758.0,0.0,0.0
12:56:29,624791.0,0.0,0.0
12:56:29,624717.0,0.0,0.0
12:56:29,624853.0,0.0,0.0
12:56:29,624664.0,0.0,0.0
12:56:29,624613.0,0.0,0.0
12:56:29,624666.0,0.0,0.0
12:56:29,624727.0,0.0,0.0
12:56:29,624949.0,0.0,0.0
12:56:29,624796.0,0.0,0.0
12:56:30,624618.0,0.0,0.0
12:56:30,624392.0,0.0,0.0
12:56:30,624104.0,0.0,0.0
12:56:30,624013.0,0.0,0.0
12:56:30,623693.0,0.0,0.0
12:56:30,623533.0,0.0,0.0
12:56:30,623441.0,0.0,0.0
12:56:30,623228.0,0.0,0.0
12:56:30,623200.0,0.0,0.0
12:56:30,623085.0,0.0,0.0
12:56:30,623116.0,0.0,0.0
12:56:30,623135.0,0.0,0.0
12:56:30,623080.0,0.0,0.0
12:56:30,623221.0,0.0,0.0
12:56:30,623206.0,0.0,0.0
12:56:30,623355.0,0.0,0.0
12:56:30,623543.0,0.0,0.0
12:56:30,623614.0,0.0,0.0
12:56:30,623877.0,0.0,0.0
12:56:30,623938.0,0.0,0.0
12:56:30,623947.0,0.0,0.0
12:56:30,623941.0,0.0,0.0
12:56:30,623823.0,0.0,0.0
12:56:30,624071.0,0.0,0.0
12:56:30,624203.0,0.0,0.0
12:56:30,624138.0,0.0,0.0
12:56:30,623867.0,0.0,0.0
12:56:30,623525.0,0.0,0.0
12:56:30,623663.0,0.0,0.0
12:56:30,623568.0,0.0,0.0
12:56:30,623528.0,0.0,0.0
12:56:30,623551.0,0.0,0.0
12:56:30,623532.0,0.0,0.0
12:56:30,623706.0,0.0,0.0
12:56:30,623656.0,0.0,0.0
12:56:30,623688.0,0.0,0.0
12:56:30,623699.0,0.0,0.0
12:56:30,623648.0,0.0,0.0
12:56:30,623706.0,0.0,0.0
12:56:30,623524.0,0.0,0.0
12:56:30,623624.0,0.0,0.0
12:56:30,623716.0,0.0,0.0
12:56:30,623617.0,0.0,0.0
12:56:30,623651.0,0.0,0.0
12:56:30,623584.0,0.0,0.0
12:56:30,623724.0,0.0,0.0
12:56:30,623758.0,0.0,0.0
12:56:30,623714.0,0.0,0.0
12:56:30,623838.0,0.0,0.0
12:56:30,623737.0,0.0,0.0
12:56:30,623760.0,0.0,0.0
12:56:30,623918.0,0.0,0.0
12:56:30,623944.0,0.0,0.0
12:56:30,623997.0,0.0,0.0
12:56:30,623804.0,0.0,0.0
12:56:30,623844.0,0.0,0.0
12:56:30,623868.0,0.0,0.0
12:56:30,623756.0,0.0,0.0
12:56:30,623804.0,0.0,0.0
12:56:30,623651.0,0.0,0.0
12:56:30,623648.0,0.0,0.0
12:56:30,623704.0,0.0,0.0
12:56:30,623694.0,0.0,0.0
12:56:30,623886.0,0.0,0.0
12:56:30,623801.0,0.0,0.0
12:56:30,623833.0,0.0,0.0
12:56:30,623850.0,0.0,0.0
12:56:30,623734.0,0.0,0.0
12:56:30,623763.0,0.0,0.0
12:56:30,623669.0,0.0,0.0
12:56:30,623729.0,0.0,0.0
12:56:30,623729.0,0.0,0.0
12:56:30,623804.0,0.0,0.0
12:56:30,623840.0,0.0,0.0
12:56:30,623661.0,0.0,0.0
12:56:30,623714.0,0.0,0.0
12:56:30,623753.0,0.0,0.0
12:56:30,623591.0,0.0,0.0
12:56:30,623651.0,0.0,0.0
12:56:30,623604.0,0.0,0.0
12:56:30,623638.0,0.0,0.0
12:56:30,623626.0,0.0,0.0
12:56:30,623544.0,0.0,0.0
12:56:30,623685.0,0.0,0.0
12:56:30,623553.0,0.0,0.0
12:56:30,623381.0,0.0,0.0
12:56:30,623287.0,0.0,0.0
12:56:30,623265.0,0.0,0.0
12:56:30,623508.0,0.0,0.0
12:56:30,623510.0,0.0,0.0
12:56:30,623566.0,0.0,0.0
12:56:30,623613.0,0.0,0.0
12:56:30,623531.0,0.0,0.0
12:56:30,623569.0,0.0,0.0
12:56:30,623483.0,0.0,0.0
12:56:30,623549.0,0.0,0.0
12:56:30,623558.0,0.0,0.0
12:56:30,623448.0,0.0,0.0
12:56:30,623540.0,0.0,0.0
12:56:30,623523.0,0.0,0.0
12:56:30,623739.0,0.0,0.0
12:56:30,623876.0,0.0,0.0
12:56:30,623695.0,0.0,0.0
12:56:30,623589.0,0.0,0.0
12:56:30,623319.0,0.0,0.0
12:56:30,623269.0,0.0,0.0
12:56:30,623444.0,0.0,0.0
12:56:30,623434.0,0.0,0.0
12:56:30,623519.0,0.0,0.0
12:56:30,623398.0,0.0,0.0
12:56:30,623403.0,0.0,0.0
12:56:30,623440.0,0.0,0.0
12:56:30,623494.0,0.0,0.0
12:56:30,623678.0,0.0,0.0
12:56:30,623578.0,0.0,0.0
12:56:30,623484.0,0.0,0.0
12:56:30,623563.0,0.0,0.0
12:56:30,623553.0,0.0,0.0
12:56:30,623604.0,0.0,0.0
12:56:30,623459.0,0.0,0.0
12:56:30,623570.0,0.0,0.0
12:56:30,623601.0,0.0,0.0
12:56:30,623651.0,0.0,0.0
12:56:30,623768.0,0.0,0.0
12:56:30,623616.0,0.0,0.0
12:56:31,623670.0,0.0,0.0
12:56:31,623649.0,0.0,0.0
12:56:31,623597.0,0.0,0.0
12:56:31,623743.0,0.0,0.0
12:56:31,623624.0,0.0,0.0
12:56:31,623719.0,0.0,0.0
12:56:31,623772.0,0.0,0.0
12:56:31,623794.0,0.0,0.0
12:56:31,623968.0,0.0,0.0
12:56:31,623781.0,0.0,0.0
12:56:31,623847.0,0.0,0.0
12:56:31,623809.0,0.0,0.0
12:56:31,623688.0,0.0,0.0
12:56:31,623789.0,0.0,0.0
12:56:31,623683.0,0.0,0.0
12:56:31,623754.0,0.0,0.0
12:56:31,623694.0,0.0,0.0
12:56:31,623487.0,0.0,0.0
12:56:31,623554.0,0.0,0.0
12:56:31,623374.0,0.0,0.0
12:56:31,623369.0,0.0,0.0
12:56:31,623243.0,0.0,0.0
12:56:31,623126.0,0.0,0.0
12:56:31,623239.0,0.0,0.0
12:56:31,623009.0,0.0,0.0
12:56:31,623052.0,0.0,0.0
12:56:31,622899.0,0.0,0.0
12:56:31,622759.0,0.0,0.0
12:56:31,622905.0,0.0,0.0
12:56:31,622789.0,0.0,0.0
12:56:31,622880.0,0.0,0.0
12:56:31,622761.0,0.0,0.0
12:56:31,622683.0,0.0,0.0
12:56:31,622848.0,0.0,0.0
12:56:31,622670.0,0.0,0.0
12:56:31,622764.0,0.0,0.0
12:56:31,622679.0,0.0,0.0
12:56:31,622613.0,0.0,0.0
12:56:31,622740.0,0.0,0.0
12:56:31,622458.0,0.0,0.0
12:56:31,622554.0,0.0,0.0
12:56:31,622474.0,0.0,0.0
12:56:31,622304.0,0.0,0.0
12:56:31,622516.0,0.0,0.0
12:56:31,622196.0,0.0,0.0
12:56:31,622261.0,0.0,0.0
12:56:31,622287.0,0.0,0.0
12:56:31,622207.0,0.0,0.0
12:56:31,622675.0,0.0,0.0
12:56:31,622541.0,0.0,0.0
12:56:31,622401.0,0.0,0.0
12:56:31,622263.0,0.0,0.0
12:56:31,622016.0,0.0,0.0
12:56:31,622269.0,0.0,0.0
12:56:31,622061.0,0.0,0.0
12:56:31,622135.0,0.0,0.0
12:56:31,622113.0,0.0,0.0
12:56:31,621833.0,0.0,0.0
12:56:31,622021.0,0.0,0.0
12:56:31,621781.0,0.0,0.0
12:56:31,621884.0,0.0,0.0
12:56:31,621852.0,0.0,0.0
12:56:31,621599.0,0.0,0.0
12:56:31,621837.0,0.0,0.0
12:56:31,621581.0,0.0,0.0
12:56:31,621684.0,0.0,0.0
12:56:31,621689.0,0.0,0.0
12:56:31,621428.0,0.0,0.0
12:56:31,621677.0,0.0,0.0
12:56:31,621418.0,0.0,0.0
12:56:31,621523.0,0.0,0.0
12:56:31,621498.0,0.0,0.0
12:56:31,621283.0,0.0,0.0
12:56:31,621525.0,0.0,0.0
12:56:31,621281.0,0.0,0.0
12:56:31,621423.0,0.0,0.0
12:56:31,621433.0,0.0,0.0
12:56:31,621309.0,0.0,0.0
12:56:31,621567.0,0.0,0.0
12:56:31,621326.0,0.0,0.0
12:56:31,621494.0,0.0,0.0
12:56:31,621481.0,0.0,0.0
12:56:31,621261.0,0.0,0.0
12:56:31,621409.0,0.0,0.0
12:56:31,621073.0,0.0,0.0
12:56:31,621208.0,0.0,0.0
12:56:31,621171.0,0.0,0.0
12:56:31,620934.0,0.0,0.0
12:56:31,621118.0,0.0,0.0
12:56:31,620833.0,0.0,0.0
12:56:31,620913.0,0.0,0.0
12:56:31,620863.0,0.0,0.0
12:56:31,620718.0,0.0,0.0
12:56:31,620955.0,0.0,0.0
12:56:31,620708.0,0.0,0.0
12:56:31,620863.0,0.0,0.0
12:56:31,620844.0,0.0,0.0
12:56:31,620680.0,0.0,0.0
12:56:31,620903.0,0.0,0.0
12:56:31,620621.0,0.0,0.0
12:56:31,620763.0,0.0,0.0
12:56:31,620738.0,0.0,0.0
12:56:31,620553.0,0.0,0.0
12:56:31,620793.0,0.0,0.0
12:56:31,620483.0,0.0,0.0
12:56:31,620598.0,0.0,0.0
12:56:31,620616.0,0.0,0.0
12:56:31,620491.0,0.0,0.0
12:56:31,620799.0,0.0,0.0
12:56:31,620615.0,0.0,0.0
12:56:31,620852.0,0.0,0.0
12:56:31,620812.0,0.0,0.0
12:56:31,620573.0,0.0,0.0
12:56:31,620770.0,0.0,0.0
12:56:31,620533.0,0.0,0.0
12:56:31,620814.0,0.0,0.0
12:56:31,620954.0,0.0,0.0
12:56:31,620921.0,0.0,0.0
12:56:31,620966.0,0.0,0.0
12:56:31,620539.0,0.0,0.0
12:56:31,620679.0,0.0,0.0
12:56:31,620709.0,0.0,0.0
12:56:31,620614.0,0.0,0.0
12:56:31,620892.0,0.0,0.0
12:56:31,620668.0,0.0,0.0
12:56:32,620797.0,0.0,0.0
12:56:32,620768.0,0.0,0.0
12:56:32,620622.0,0.0,0.0
12:56:32,620855.0,0.0,0.0
12:56:32,620579.0,0.0,0.0
12:56:32,620711.0,0.0,0.0
12:56:32,620677.0,0.0,0.0
12:56:32,620519.0,0.0,0.0
12:56:32,620752.0,0.0,0.0
12:56:32,620500.0,0.0,0.0
12:56:32,620688.0,0.0,0.0
12:56:32,620696.0,0.0,0.0
12:56:32,620612.0,0.0,0.0
12:56:32,620865.0,0.0,0.0
12:56:32,620613.0,0.0,0.0
12:56:32,620802.0,0.0,0.0
12:56:32,620773.0,0.0,0.0
12:56:32,620655.0,0.0,0.0
12:56:32,620938.0,0.0,0.0
12:56:32,620672.0,0.0,0.0
12:56:32,620886.0,0.0,0.0
12:56:32,620840.0,0.0,0.0
12:56:32,620719.0,0.0,0.0
12:56:32,620975.0,0.0,0.0
12:56:32,620754.0,0.0,0.0
12:56:32,620940.0,0.0,0.0
12:56:32,620867.0,0.0,0.0
12:56:32,620745.0,0.0,0.0
12:56:32,620968.0,0.0,0.0
12:56:32,620667.0,0.0,0.0
12:56:32,620861.0,0.0,0.0
12:56:32,620816.0,0.0,0.0
12:56:32,620724.0,0.0,0.0
12:56:32,620999.0,0.0,0.0
12:56:32,620704.0,0.0,0.0
12:56:32,620840.0,0.0,0.0
12:56:32,620775.0,0.0,0.0
12:56:32,620653.0,0.0,0.0
12:56:32,620898.0,0.0,0.0
12:56:32,620646.0,0.0,0.0
12:56:32,620859.0,0.0,0.0
12:56:32,620797.0,0.0,0.0
12:56:32,620684.0,0.0,0.0
12:56:32,620908.0,0.0,0.0
12:56:32,620654.0,0.0,0.0
12:56:32,620856.0,0.0,0.0
12:56:32,620806.0,0.0,0.0
12:56:32,620698.0,0.0,0.0
12:56:32,620949.0,0.0,0.0
12:56:32,620679.0,0.0,0.0
12:56:32,620871.0,0.0,0.0
12:56:32,620810.0,0.0,0.0
12:56:32,620685.0,0.0,0.0
12:56:32,620899.0,0.0,0.0
12:56:32,620581.0,0.0,0.0
12:56:32,620738.0,0.0,0.0
12:56:32,620706.0,0.0,0.0
12:56:32,620727.0,0.0,0.0
12:56:32,621098.0,0.0,0.0
12:56:32,620994.0,0.0,0.0
12:56:32,621084.0,0.0,0.0
12:56:32,620821.0,0.0,0.0
12:56:32,620675.0,0.0,0.0
12:56:32,620947.0,0.0,0.0
12:56:32,620786.0,0.0,0.0
12:56:32,621028.0,0.0,0.0
12:56:32,621028.0,0.0,0.0
12:56:32,620994.0,0.0,0.0
12:56:32,621231.0,0.0,0.0
12:56:32,621033.0,0.0,0.0
12:56:32,621272.0,0.0,0.0
12:56:32,621284.0,0.0,0.0
12:56:32,621253.0,0.0,0.0
12:56:32,621529.0,0.0,0.0
12:56:32,621356.0,0.0,0.0
12:56:32,621656.0,0.0,0.0
12:56:32,621704.0,0.0,0.0
12:56:32,621712.0,0.0,0.0
12:56:32,621969.0,0.0,0.0
12:56:32,621801.0,0.0,0.0
12:56:32,622032.0,0.0,0.0
12:56:32,622015.0,0.0,0.0
12:56:32,621949.0,0.0,0.0
12:56:32,622157.0,0.0,0.0
12:56:32,621937.0,0.0,0.0
12:56:32,622134.0,0.0,0.0
12:56:32,622047.0,0.0,0.0
12:56:32,621968.0,0.0,0.0
12:56:32,622146.0,0.0,0.0
12:56:32,621899.0,0.0,0.0
12:56:32,622160.0,0.0,0.0
12:56:32,622076.0,0.0,0.0
12:56:32,621875.0,0.0,0.0
12:56:32,621940.0,0.0,0.0
12:56:32,621739.0,0.0,0.0
12:56:32,621953.0,0.0,0.0
12:56:32,621741.0,0.0,0.0
12:56:32,621572.0,0.0,0.0
12:56:32,621639.0,0.0,0.0
12:56:32,621168.0,0.0,0.0
12:56:32,621276.0,0.0,0.0
12:56:32,621220.0,0.0,0.0
12:56:32,621016.0,0.0,0.0
12:56:32,621098.0,0.0,0.0
12:56:32,620776.0,0.0,0.0
12:56:32,620923.0,0.0,0.0
12:56:32,620787.0,0.0,0.0
12:56:32,620673.0,0.0,0.0
12:56:32,620774.0,0.0,0.0
12:56:32,620522.0,0.0,0.0
12:56:32,620721.0,0.0,0.0
12:56:32,620653.0,0.0,0.0
12:56:32,620597.0,0.0,0.0
12:56:32,620788.0,0.0,0.0
12:56:32,620558.0,0.0,0.0
12:56:32,620726.0,0.0,0.0
12:56:32,620575.0,0.0,0.0
12:56:32,620457.0,0.0,0.0
12:56:32,620600.0,0.0,0.0
12:56:32,620446.0,0.0,0.0
12:56:32,620710.0,0.0,0.0
12:56:32,620639.0,0.0,0.0
12:56:32,620626.0,0.0,0.0
12:56:32,620749.0,0.0,0.0
12:56:32,620511.0,0.0,0.0
12:56:33,620778.0,0.0,0.0
12:56:33,620818.0,0.0,0.0
12:56:33,620994.0,0.0,0.0
12:56:33,621314.0,0.0,0.0
12:56:33,621006.0,0.0,0.0
12:56:33,621134.0,0.0,0.0
12:56:33,621082.0,0.0,0.0
12:56:33,621201.0,0.0,0.0
12:56:33,621454.0,0.0,0.0
12:56:33,621281.0,0.0,0.0
12:56:33,621518.0,0.0,0.0
12:56:33,621534.0,0.0,0.0
12:56:33,621642.0,0.0,0.0
12:56:33,621843.0,0.0,0.0
12:56:33,621645.0,0.0,0.0
12:56:33,621938.0,0.0,0.0
12:56:33,621894.0,0.0,0.0
12:56:33,621934.0,0.0,0.0
12:56:33,622142.0,0.0,0.0
12:56:33,622002.0,0.0,0.0
12:56:33,622354.0,0.0,0.0
12:56:33,622362.0,0.0,0.0
12:56:33,622439.0,0.0,0.0
12:56:33,622603.0,0.0,0.0
12:56:33,622520.0,0.0,0.0
12:56:33,622751.0,0.0,0.0
12:56:33,622673.0,0.0,0.0
12:56:33,622651.0,0.0,0.0
12:56:33,622740.0,0.0,0.0
12:56:33,622584.0,0.0,0.0
12:56:33,622747.0,0.0,0.0
12:56:33,622603.0,0.0,0.0
12:56:33,622540.0,0.0,0.0
12:56:33,622696.0,0.0,0.0
12:56:33,622516.0,0.0,0.0
12:56:33,622684.0,0.0,0.0
12:56:33,622563.0,0.0,0.0
12:56:33,622541.0,0.0,0.0
12:56:33,622656.0,0.0,0.0
12:56:33,622458.0,0.0,0.0
12:56:33,622534.0,0.0,0.0
12:56:33,622226.0,0.0,0.0
12:56:33,622149.0,0.0,0.0
12:56:33,622383.0,0.0,0.0
12:56:33,622241.0,0.0,0.0
12:56:33,622450.0,0.0,0.0
12:56:33,622367.0,0.0,0.0
12:56:33,622391.0,0.0,0.0
12:56:33,622528.0,0.0,0.0
12:56:33,622404.0,0.0,0.0
12:56:33,622705.0,0.0,0.0
12:56:33,622607.0,0.0,0.0
12:56:33,622579.0,0.0,0.0
12:56:33,622754.0,0.0,0.0
12:56:33,622469.0,0.0,0.0
12:56:33,622572.0,0.0,0.0
12:56:33,622479.0,0.0,0.0
12:56:33,622491.0,0.0,0.0
12:56:33,622736.0,0.0,0.0
12:56:33,622574.0,0.0,0.0
12:56:33,622756.0,0.0,0.0
12:56:33,622648.0,0.0,0.0
12:56:33,622601.0,0.0,0.0
12:56:33,622734.0,0.0,0.0
12:56:33,622444.0,0.0,0.0
12:56:33,622558.0,0.0,0.0
12:56:33,622323.0,0.0,0.0
12:56:33,622259.0,0.0,0.0
12:56:33,622343.0,0.0,0.0
12:56:33,622074.0,0.0,0.0
12:56:33,622249.0,0.0,0.0
12:56:33,622048.0,0.0,0.0
12:56:33,621987.0,0.0,0.0
12:56:33,622113.0,0.0,0.0
12:56:33,621926.0,0.0,0.0
12:56:33,622223.0,0.0,0.0
12:56:33,622187.0,0.0,0.0
12:56:33,621946.0,0.0,0.0
12:56:33,621788.0,0.0,0.0
12:56:33,621403.0,0.0,0.0
12:56:33,621521.0,0.0,0.0
12:56:33,621370.0,0.0,0.0
12:56:33,621313.0,0.0,0.0
12:56:33,621412.0,0.0,0.0
12:56:33,621179.0,0.0,0.0
12:56:33,621317.0,0.0,0.0
12:56:33,621212.0,0.0,0.0
12:56:33,621174.0,0.0,0.0
12:56:33,621260.0,0.0,0.0
12:56:33,621183.0,0.0,0.0
12:56:33,621218.0,0.0,0.0
12:56:33,621280.0,0.0,0.0
12:56:33,621254.0,0.0,0.0
12:56:33,621404.0,0.0,0.0
12:56:33,621399.0,0.0,0.0
12:56:33,621493.0,0.0,0.0
12:56:33,621562.0,0.0,0.0
12:56:33,621547.0,0.0,0.0
12:56:33,621712.0,0.0,0.0
12:56:33,621681.0,0.0,0.0
12:56:33,621834.0,0.0,0.0
12:56:33,621884.0,0.0,0.0
12:56:33,621728.0,0.0,0.0
12:56:33,621856.0,0.0,0.0
12:56:33,621773.0,0.0,0.0
12:56:33,621554.0,0.0,0.0
12:56:33,620288.0,0.0,0.0
12:56:33,619856.0,0.0,0.0
12:56:33,620805.0,0.0,0.0
12:56:33,621363.0,0.0,0.0
12:56:33,621837.0,0.0,0.0
12:56:33,622040.0,0.0,0.0
12:56:33,622100.0,0.0,0.0
12:56:33,622459.0,0.0,0.0
12:56:33,622632.0,0.0,0.0
12:56:33,623022.0,0.0,0.0
12:56:33,623289.0,0.0,0.0
12:56:33,623549.0,0.0,0.0
12:56:33,623921.0,0.0,0.0
12:56:33,624171.0,0.0,0.0
12:56:33,624624.0,0.0,0.0
12:56:33,624913.0,0.0,0.0
12:56:33,624919.0,0.0,0.0
12:56:33,624971.0,0.0,0.0
12:56:33,624718.0,0.0,0.0
12:56:34,624528.0,0.0,0.0
12:56:34,624423.0,0.0,0.0
12:56:34,624243.0,0.0,0.0
12:56:34,624186.0,0.0,0.0
12:56:34,624006.0,0.0,0.0
12:56:34,623759.0,0.0,0.0
12:56:34,623526.0,0.0,0.0
12:56:34,623143.0,0.0,0.0
12:56:34,622784.0,0.0,0.0
12:56:34,622354.0,0.0,0.0
12:56:34,622080.0,0.0,0.0
12:56:34,621833.0,0.0,0.0
12:56:34,621679.0,0.0,0.0
12:56:34,621525.0,0.0,0.0
12:56:34,621200.0,0.0,0.0
12:56:34,620951.0,0.0,0.0
12:56:34,620866.0,0.0,0.0
12:56:34,620728.0,0.0,0.0
12:56:34,620545.0,0.0,0.0
12:56:34,620485.0,0.0,0.0
12:56:34,620576.0,0.0,0.0
12:56:34,620706.0,0.0,0.0
12:56:34,620924.0,0.0,0.0
12:56:34,621254.0,0.0,0.0
12:56:34,621630.0,0.0,0.0
12:56:34,622063.0,0.0,0.0
12:56:34,622476.0,0.0,0.0
12:56:34,622818.0,0.0,0.0
12:56:34,623156.0,0.0,0.0
12:56:34,623324.0,0.0,0.0
12:56:34,623475.0,0.0,0.0
12:56:34,623684.0,0.0,0.0
12:56:34,623811.0,0.0,0.0
12:56:34,624028.0,0.0,0.0
12:56:34,624096.0,0.0,0.0
12:56:34,624159.0,0.0,0.0
12:56:34,624211.0,0.0,0.0
12:56:34,624141.0,0.0,0.0
12:56:34,624110.0,0.0,0.0
12:56:34,624010.0,0.0,0.0
12:56:34,623869.0,0.0,0.0
12:56:34,623876.0,0.0,0.0
12:56:34,623673.0,0.0,0.0
12:56:34,623704.0,0.0,0.0
12:56:34,623888.0,0.0,0.0
12:56:34,623803.0,0.0,0.0
12:56:34,623595.0,0.0,0.0
12:56:34,623479.0,0.0,0.0
12:56:34,623432.0,0.0,0.0
12:56:34,623474.0,0.0,0.0
12:56:34,623644.0,0.0,0.0
12:56:34,623682.0,0.0,0.0
12:56:34,623616.0,0.0,0.0
12:56:34,623519.0,0.0,0.0
12:56:34,623361.0,0.0,0.0
12:56:34,623629.0,0.0,0.0
12:56:34,623781.0,0.0,0.0
12:56:34,623854.0,0.0,0.0
12:56:34,623870.0,0.0,0.0
12:56:34,623816.0,0.0,0.0
12:56:34,623800.0,0.0,0.0
12:56:34,623746.0,0.0,0.0
12:56:34,623813.0,0.0,0.0
12:56:34,623819.0,0.0,0.0
12:56:34,623713.0,0.0,0.0
12:56:34,623716.0,0.0,0.0
12:56:34,623604.0,0.0,0.0
12:56:34,623496.0,0.0,0.0
12:56:34,623475.0,0.0,0.0
12:56:34,623599.0,0.0,0.0
12:56:34,623796.0,0.0,0.0
12:56:34,623831.0,0.0,0.0
12:56:34,623869.0,0.0,0.0
12:56:34,623913.0,0.0,0.0
12:56:34,623890.0,0.0,0.0
12:56:34,623796.0,0.0,0.0
12:56:34,623778.0,0.0,0.0
12:56:34,623779.0,0.0,0.0
12:56:34,623718.0,0.0,0.0
12:56:34,623710.0,0.0,0.0
12:56:34,623751.0,0.0,0.0
12:56:34,623768.0,0.0,0.0
12:56:34,623715.0,0.0,0.0
12:56:34,623688.0,0.0,0.0
12:56:34,623744.0,0.0,0.0
12:56:34,623784.0,0.0,0.0
12:56:34,623719.0,0.0,0.0
12:56:34,623750.0,0.0,0.0
12:56:34,623726.0,0.0,0.0
12:56:34,623664.0,0.0,0.0
12:56:34,623695.0,0.0,0.0
12:56:34,623626.0,0.0,0.0
12:56:34,623606.0,0.0,0.0
12:56:34,623553.0,0.0,0.0
12:56:34,623493.0,0.0,0.0
12:56:34,623518.0,0.0,0.0
12:56:34,623519.0,0.0,0.0
12:56:34,623605.0,0.0,0.0
12:56:34,623650.0,0.0,0.0
12:56:34,623681.0,0.0,0.0
12:56:34,623743.0,0.0,0.0
12:56:34,623691.0,0.0,0.0
12:56:34,623803.0,0.0,0.0
12:56:34,623647.0,0.0,0.0
12:56:34,623509.0,0.0,0.0
12:56:34,623662.0,0.0,0.0
12:56:34,623654.0,0.0,0.0
12:56:34,623762.0,0.0,0.0
12:56:34,623781.0,0.0,0.0
12:56:34,623772.0,0.0,0.0
12:56:34,623876.0,0.0,0.0
12:56:34,623890.0,0.0,0.0
12:56:34,623928.0,0.0,0.0
12:56:34,623876.0,0.0,0.0
12:56:34,623754.0,0.0,0.0
12:56:34,623770.0,0.0,0.0
12:56:34,623693.0,0.0,0.0
12:56:34,623754.0,0.0,0.0
12:56:34,623765.0,0.0,0.0
12:56:34,623687.0,0.0,0.0
12:56:34,623709.0,0.0,0.0
12:56:34,623684.0,0.0,0.0
12:56:34,623813.0,0.0,0.0
12:56:34,623822.0,0.0,0.0
12:56:34,623785.0,0.0,0.0
12:56:35,623895.0,0.0,0.0
12:56:35,623781.0,0.0,0.0
12:56:35,623843.0,0.0,0.0
12:56:35,623832.0,0.0,0.0
12:56:35,623825.0,0.0,0.0
12:56:35,623936.0,0.0,0.0
12:56:35,623891.0,0.0,0.0
12:56:35,623963.0,0.0,0.0
12:56:35,623956.0,0.0,0.0
12:56:35,623899.0,0.0,0.0
12:56:35,623951.0,0.0,0.0
12:56:35,623840.0,0.0,0.0
12:56:35,623819.0,0.0,0.0
12:56:35,623718.0,0.0,0.0
12:56:35,623579.0,0.0,0.0
12:56:35,623476.0,0.0,0.0
12:56:35,623349.0,0.0,0.0
12:56:35,623214.0,0.0,0.0
12:56:35,623139.0,0.0,0.0
12:56:35,623186.0,0.0,0.0
12:56:35,623327.0,0.0,0.0
12:56:35,623468.0,0.0,0.0
12:56:35,623299.0,0.0,0.0
12:56:35,623121.0,0.0,0.0
12:56:35,622979.0,0.0,0.0
12:56:35,622858.0,0.0,0.0
12:56:35,622846.0,0.0,0.0
12:56:35,622793.0,0.0,0.0
12:56:35,622719.0,0.0,0.0
12:56:35,622639.0,0.0,0.0
12:56:35,622539.0,0.0,0.0
12:56:35,622454.0,0.0,0.0
12:56:35,622354.0,0.0,0.0
12:56:35,622330.0,0.0,0.0
12:56:35,622239.0,0.0,0.0
12:56:35,622120.0,0.0,0.0
12:56:35,622043.0,0.0,0.0
12:56:35,621978.0,0.0,0.0
12:56:35,621919.0,0.0,0.0
12:56:35,621883.0,0.0,0.0
12:56:35,621789.0,0.0,0.0
12:56:35,621694.0,0.0,0.0
12:56:35,621628.0,0.0,0.0
12:56:35,621573.0,0.0,0.0
12:56:35,621536.0,0.0,0.0
12:56:35,621479.0,0.0,0.0
12:56:35,621402.0,0.0,0.0
12:56:35,621386.0,0.0,0.0
12:56:35,621298.0,0.0,0.0
12:56:35,621289.0,0.0,0.0
12:56:35,621266.0,0.0,0.0
12:56:35,621210.0,0.0,0.0
12:56:35,621228.0,0.0,0.0
12:56:35,621122.0,0.0,0.0
12:56:35,621086.0,0.0,0.0
12:56:35,621088.0,0.0,0.0
12:56:35,621046.0,0.0,0.0
12:56:35,621058.0,0.0,0.0
12:56:35,621037.0,0.0,0.0
12:56:35,621034.0,0.0,0.0
12:56:35,620976.0,0.0,0.0
12:56:35,620857.0,0.0,0.0
12:56:35,620760.0,0.0,0.0
12:56:35,620677.0,0.0,0.0
12:56:35,620594.0,0.0,0.0
12:56:35,620531.0,0.0,0.0
12:56:35,620469.0,0.0,0.0
12:56:35,620498.0,0.0,0.0
12:56:35,620422.0,0.0,0.0
12:56:35,620428.0,0.0,0.0
12:56:35,620449.0,0.0,0.0
12:56:35,620376.0,0.0,0.0
12:56:35,620373.0,0.0,0.0
12:56:35,620269.0,0.0,0.0
12:56:35,620169.0,0.0,0.0
12:56:35,620122.0,0.0,0.0
12:56:35,619971.0,0.0,0.0
12:56:35,619931.0,0.0,0.0
12:56:35,619770.0,0.0,0.0
12:56:35,619675.0,0.0,0.0
12:56:35,619664.0,0.0,0.0
12:56:35,619522.0,0.0,0.0
12:56:35,619508.0,0.0,0.0
12:56:35,619385.0,0.0,0.0
12:56:35,619286.0,0.0,0.0
12:56:35,619243.0,0.0,0.0
12:56:35,619022.0,0.0,0.0
12:56:35,618995.0,0.0,0.0
12:56:35,618864.0,0.0,0.0
12:56:35,618744.0,0.0,0.0
12:56:35,618694.0,0.0,0.0
12:56:35,618516.0,0.0,0.0
12:56:35,618454.0,0.0,0.0
12:56:35,618233.0,0.0,0.0
12:56:35,617870.0,0.0,0.0
12:56:35,617643.0,0.0,0.0
12:56:35,617374.0,0.0,0.0
12:56:35,617234.0,0.0,0.0
12:56:35,617080.0,0.0,0.0
12:56:35,617034.0,0.0,0.0
12:56:35,617085.0,0.0,0.0
12:56:35,617031.0,0.0,0.0
12:56:35,617059.0,0.0,0.0
12:56:35,617039.0,0.0,0.0
12:56:35,617013.0,0.0,0.0
12:56:35,617080.0,0.0,0.0
12:56:35,616993.0,0.0,0.0
12:56:35,616948.0,0.0,0.0
12:56:35,616824.0,0.0,0.0
12:56:35,616774.0,0.0,0.0
12:56:35,616778.0,0.0,0.0
12:56:35,616646.0,0.0,0.0
12:56:35,616681.0,0.0,0.0
12:56:35,616593.0,0.0,0.0
12:56:35,616551.0,0.0,0.0
12:56:35,616584.0,0.0,0.0
12:56:35,616478.0,0.0,0.0
12:56:35,616528.0,0.0,0.0
12:56:35,616463.0,0.0,0.0
12:56:35,616416.0,0.0,0.0
12:56:35,616409.0,0.0,0.0
12:56:35,616325.0,0.0,0.0
12:56:35,616413.0,0.0,0.0
12:56:35,616508.0,0.0,0.0
12:56:36,616728.0,0.0,0.0
12:56:36,616996.0,0.0,0.0
12:56:36,617035.0,0.0,0.0
12:56:36,617047.0,0.0,0.0
12:56:36,617046.0,0.0,0.0
12:56:36,617183.0,0.0,0.0
12:56:36,617400.0,0.0,0.0
12:56:36,617499.0,0.0,0.0
12:56:36,617744.0,0.0,0.0
12:56:36,617861.0,0.0,0.0
12:56:36,617993.0,0.0,0.0
12:56:36,618211.0,0.0,0.0
12:56:36,618255.0,0.0,0.0
12:56:36,618423.0,0.0,0.0
12:56:36,618384.0,0.0,0.0
12:56:36,618315.0,0.0,0.0
12:56:36,618227.0,0.0,0.0
12:56:36,617988.0,0.0,0.0
12:56:36,617974.0,0.0,0.0
12:56:36,618005.0,0.0,0.0
12:56:36,618043.0,0.0,0.0
12:56:36,618104.0,0.0,0.0
12:56:36,618105.0,0.0,0.0
12:56:36,618322.0,0.0,0.0
12:56:36,618404.0,0.0,0.0
12:56:36,618391.0,0.0,0.0
12:56:36,618664.0,0.0,0.0
12:56:36,618680.0,0.0,0.0
12:56:36,618754.0,0.0,0.0
12:56:36,618753.0,0.0,0.0
12:56:36,618747.0,0.0,0.0
12:56:36,618813.0,0.0,0.0
12:56:36,618734.0,0.0,0.0
12:56:36,618784.0,0.0,0.0
12:56:36,618700.0,0.0,0.0
12:56:36,618650.0,0.0,0.0
12:56:36,618651.0,0.0,0.0
12:56:36,618513.0,0.0,0.0
12:56:36,618425.0,0.0,0.0
12:56:36,618190.0,0.0,0.0
12:56:36,618060.0,0.0,0.0
12:56:36,617938.0,0.0,0.0
12:56:36,617708.0,0.0,0.0
12:56:36,617607.0,0.0,0.0
12:56:36,617447.0,0.0,0.0
12:56:36,617510.0,0.0,0.0
12:56:36,617652.0,0.0,0.0
12:56:36,617549.0,0.0,0.0
12:56:36,617663.0,0.0,0.0
12:56:36,617683.0,0.0,0.0
12:56:36,617696.0,0.0,0.0
12:56:36,617740.0,0.0,0.0
12:56:36,617603.0,0.0,0.0
12:56:36,617641.0,0.0,0.0
12:56:36,617533.0,0.0,0.0
12:56:36,617497.0,0.0,0.0
12:56:36,617500.0,0.0,0.0
12:56:36,617494.0,0.0,0.0
12:56:36,617729.0,0.0,0.0
12:56:36,617883.0,0.0,0.0
12:56:36,618111.0,0.0,0.0
12:56:36,618421.0,0.0,0.0
12:56:36,618644.0,0.0,0.0
12:56:36,619025.0,0.0,0.0
12:56:36,619208.0,0.0,0.0
12:56:36,619404.0,0.0,0.0
12:56:36,619614.0,0.0,0.0
12:56:36,619499.0,0.0,0.0
12:56:36,619463.0,0.0,0.0
12:56:36,619371.0,0.0,0.0
12:56:36,619379.0,0.0,0.0
12:56:36,619432.0,0.0,0.0
12:56:36,619415.0,0.0,0.0
12:56:36,619573.0,0.0,0.0
12:56:36,619527.0,0.0,0.0
12:56:36,619533.0,0.0,0.0
12:56:36,619611.0,0.0,0.0
12:56:36,619548.0,0.0,0.0
12:56:36,619669.0,0.0,0.0
12:56:36,619708.0,0.0,0.0
12:56:36,619756.0,0.0,0.0
12:56:36,619852.0,0.0,0.0
12:56:36,619828.0,0.0,0.0
12:56:36,619901.0,0.0,0.0
12:56:36,619806.0,0.0,0.0
12:56:36,619719.0,0.0,0.0
12:56:36,619632.0,0.0,0.0
12:56:36,619428.0,0.0,0.0
12:56:36,619426.0,0.0,0.0
12:56:36,619390.0,0.0,0.0
12:56:36,619389.0,0.0,0.0
12:56:36,619461.0,0.0,0.0
12:56:36,619376.0,0.0,0.0
12:56:36,619412.0,0.0,0.0
12:56:36,619377.0,0.0,0.0
12:56:36,619398.0,0.0,0.0
12:56:36,619509.0,0.0,0.0
12:56:36,619562.0,0.0,0.0
12:56:36,619777.0,0.0,0.0
12:56:36,619926.0,0.0,0.0
12:56:36,620138.0,0.0,0.0
12:56:36,620206.0,0.0,0.0
12:56:36,620048.0,0.0,0.0
12:56:36,620086.0,0.0,0.0
12:56:36,620145.0,0.0,0.0
12:56:36,620304.0,0.0,0.0
12:56:36,620460.0,0.0,0.0
12:56:36,620516.0,0.0,0.0
12:56:36,620706.0,0.0,0.0
12:56:36,620800.0,0.0,0.0
12:56:36,620924.0,0.0,0.0
12:56:36,621086.0,0.0,0.0
12:56:36,621166.0,0.0,0.0
12:56:36,621342.0,0.0,0.0
12:56:36,621383.0,0.0,0.0
12:56:36,621466.0,0.0,0.0
12:56:36,621589.0,0.0,0.0
12:56:36,621636.0,0.0,0.0
12:56:36,621837.0,0.0,0.0
12:56:36,621903.0,0.0,0.0
12:56:36,622041.0,0.0,0.0
12:56:36,622193.0,0.0,0.0
12:56:36,622187.0,0.0,0.0
12:56:36,622384.0,0.0,0.0
12:56:36,622364.0,0.0,0.0
12:56:37,622378.0,0.0,0.0
12:56:37,622468.0,0.0,0.0
12:56:37,622451.0,0.0,0.0
12:56:37,622623.0,0.0,0.0
12:56:37,622664.0,0.0,0.0
12:56:37,622789.0,0.0,0.0
12:56:37,622932.0,0.0,0.0
12:56:37,622917.0,0.0,0.0
12:56:37,623104.0,0.0,0.0
12:56:37,623168.0,0.0,0.0
12:56:37,623271.0,0.0,0.0
12:56:37,623459.0,0.0,0.0
12:56:37,623549.0,0.0,0.0
12:56:37,623763.0,0.0,0.0
12:56:37,623799.0,0.0,0.0
12:56:37,623901.0,0.0,0.0
12:56:37,624046.0,0.0,0.0
12:56:37,624030.0,0.0,0.0
12:56:37,624198.0,0.0,0.0
12:56:37,624240.0,0.0,0.0
12:56:37,624374.0,0.0,0.0
12:56:37,624518.0,0.0,0.0
12:56:37,624528.0,0.0,0.0
12:56:37,624704.0,0.0,0.0
12:56:37,624665.0,0.0,0.0
12:56:37,624661.0,0.0,0.0
12:56:37,624695.0,0.0,0.0
12:56:37,624578.0,0.0,0.0
12:56:37,624626.0,0.0,0.0
12:56:37,624518.0,0.0,0.0
12:56:37,624479.0,0.0,0.0
12:56:37,624465.0,0.0,0.0
12:56:37,624359.0,0.0,0.0
12:56:37,624386.0,0.0,0.0
12:56:37,624313.0,0.0,0.0
12:56:37,624290.0,0.0,0.0
12:56:37,624289.0,0.0,0.0
12:56:37,624236.0,0.0,0.0
12:56:37,624337.0,0.0,0.0
12:56:37,624266.0,0.0,0.0
12:56:37,624262.0,0.0,0.0
12:56:37,624233.0,0.0,0.0
12:56:37,624065.0,0.0,0.0
12:56:37,624033.0,0.0,0.0
12:56:37,623784.0,0.0,0.0
12:56:37,623614.0,0.0,0.0
12:56:37,623496.0,0.0,0.0
12:56:37,623239.0,0.0,0.0
12:56:37,623168.0,0.0,0.0
12:56:37,622956.0,0.0,0.0
12:56:37,622862.0,0.0,0.0
12:56:37,622782.0,0.0,0.0
12:56:37,622599.0,0.0,0.0
12:56:37,622575.0,0.0,0.0
12:56:37,622317.0,0.0,0.0
12:56:37,622161.0,0.0,0.0
12:56:37,622088.0,0.0,0.0
12:56:37,621848.0,0.0,0.0
12:56:37,621789.0,0.0,0.0
12:56:37,621592.0,0.0,0.0
12:56:37,621483.0,0.0,0.0
12:56:37,621359.0,0.0,0.0
12:56:37,621168.0,0.0,0.0
12:56:37,621229.0,0.0,0.0
12:56:37,621131.0,0.0,0.0
12:56:37,621160.0,0.0,0.0
12:56:37,621022.0,0.0,0.0
12:56:37,620603.0,0.0,0.0
12:56:37,620451.0,0.0,0.0
12:56:37,620193.0,0.0,0.0
12:56:37,620102.0,0.0,0.0
12:56:37,620067.0,0.0,0.0
12:56:37,619848.0,0.0,0.0
12:56:37,619799.0,0.0,0.0
12:56:37,619568.0,0.0,0.0
12:56:37,619463.0,0.0,0.0
12:56:37,619381.0,0.0,0.0
12:56:37,619159.0,0.0,0.0
12:56:37,619174.0,0.0,0.0
12:56:37,618938.0,0.0,0.0
12:56:37,618871.0,0.0,0.0
12:56:37,618809.0,0.0,0.0
12:56:37,618590.0,0.0,0.0
12:56:37,618636.0,0.0,0.0
12:56:37,618450.0,0.0,0.0
12:56:37,618437.0,0.0,0.0
12:56:37,618378.0,0.0,0.0
12:56:37,618209.0,0.0,0.0
12:56:37,618289.0,0.0,0.0
12:56:37,618106.0,0.0,0.0
12:56:37,618099.0,0.0,0.0
12:56:37,618132.0,0.0,0.0
12:56:37,618018.0,0.0,0.0
12:56:37,618198.0,0.0,0.0
12:56:37,618074.0,0.0,0.0
12:56:37,618104.0,0.0,0.0
12:56:37,618147.0,0.0,0.0
12:56:37,618004.0,0.0,0.0
12:56:37,618215.0,0.0,0.0
12:56:37,618105.0,0.0,0.0
12:56:37,618231.0,0.0,0.0
12:56:37,618360.0,0.0,0.0
12:56:37,618193.0,0.0,0.0
12:56:37,618441.0,0.0,0.0
12:56:37,618331.0,0.0,0.0
12:56:37,618441.0,0.0,0.0
12:56:37,618558.0,0.0,0.0
12:56:37,618397.0,0.0,0.0
12:56:37,618649.0,0.0,0.0
12:56:37,618508.0,0.0,0.0
12:56:37,618579.0,0.0,0.0
12:56:37,618703.0,0.0,0.0
12:56:37,618521.0,0.0,0.0
12:56:37,618751.0,0.0,0.0
12:56:37,618556.0,0.0,0.0
12:56:37,618598.0,0.0,0.0
12:56:37,618698.0,0.0,0.0
12:56:37,618456.0,0.0,0.0
12:56:37,618661.0,0.0,0.0
12:56:37,618478.0,0.0,0.0
12:56:37,618561.0,0.0,0.0
12:56:37,618645.0,0.0,0.0
12:56:37,618423.0,0.0,0.0
12:56:37,618681.0,0.0,0.0
12:56:37,618489.0,0.0,0.0
12:56:37,618546.0,0.0,0.0
12:56:38,618686.0,0.0,0.0
12:56:38,618519.0,0.0,0.0
12:56:38,618791.0,0.0,0.0
12:56:38,618621.0,0.0,0.0
12:56:38,618714.0,0.0,0.0
12:56:38,618837.0,0.0,0.0
12:56:38,618642.0,0.0,0.0
12:56:38,618897.0,0.0,0.0
12:56:38,618664.0,0.0,0.0
12:56:38,618757.0,0.0,0.0
12:56:38,618823.0,0.0,0.0
12:56:38,618571.0,0.0,0.0
12:56:38,618810.0,0.0,0.0
12:56:38,618606.0,0.0,0.0
12:56:38,618646.0,0.0,0.0
12:56:38,618722.0,0.0,0.0
12:56:38,618486.0,0.0,0.0
12:56:38,618691.0,0.0,0.0
12:56:38,618511.0,0.0,0.0
12:56:38,618682.0,0.0,0.0
12:56:38,618874.0,0.0,0.0
12:56:38,618736.0,0.0,0.0
12:56:38,618870.0,0.0,0.0
12:56:38,618500.0,0.0,0.0
12:56:38,618507.0,0.0,0.0
12:56:38,618602.0,0.0,0.0
12:56:38,618420.0,0.0,0.0
12:56:38,618697.0,0.0,0.0
12:56:38,618483.0,0.0,0.0
12:56:38,618543.0,0.0,0.0
12:56:38,618598.0,0.0,0.0
12:56:38,618443.0,0.0,0.0
12:56:38,618690.0,0.0,0.0
12:56:38,618471.0,0.0,0.0
12:56:38,618539.0,0.0,0.0
12:56:38,618599.0,0.0,0.0
12:56:38,618417.0,0.0,0.0
12:56:38,618694.0,0.0,0.0
12:56:38,618525.0,0.0,0.0
12:56:38,618648.0,0.0,0.0
12:56:38,618764.0,0.0,0.0
12:56:38,618607.0,0.0,0.0
12:56:38,618911.0,0.0,0.0
12:56:38,618742.0,0.0,0.0
12:56:38,618891.0,0.0,0.0
12:56:38,619018.0,0.0,0.0
12:56:38,618879.0,0.0,0.0
12:56:38,619226.0,0.0,0.0
12:56:38,619075.0,0.0,0.0
12:56:38,619246.0,0.0,0.0
12:56:38,619449.0,0.0,0.0
12:56:38,619348.0,0.0,0.0
12:56:38,619723.0,0.0,0.0
12:56:38,619642.0,0.0,0.0
12:56:38,619822.0,0.0,0.0
12:56:38,619952.0,0.0,0.0
12:56:38,619806.0,0.0,0.0
12:56:38,620070.0,0.0,0.0
12:56:38,619853.0,0.0,0.0
12:56:38,619994.0,0.0,0.0
12:56:38,620098.0,0.0,0.0
12:56:38,619927.0,0.0,0.0
12:56:38,620234.0,0.0,0.0
12:56:38,620033.0,0.0,0.0
12:56:38,620189.0,0.0,0.0
12:56:38,620321.0,0.0,0.0
12:56:38,620179.0,0.0,0.0
12:56:38,620522.0,0.0,0.0
12:56:38,620380.0,0.0,0.0
12:56:38,620586.0,0.0,0.0
12:56:38,620721.0,0.0,0.0
12:56:38,620611.0,0.0,0.0
12:56:38,620982.0,0.0,0.0
12:56:38,620850.0,0.0,0.0
12:56:38,621056.0,0.0,0.0
12:56:38,621193.0,0.0,0.0
12:56:38,621112.0,0.0,0.0
12:56:38,621487.0,0.0,0.0
12:56:38,621421.0,0.0,0.0
12:56:38,621643.0,0.0,0.0
12:56:38,621789.0,0.0,0.0
12:56:38,621678.0,0.0,0.0
12:56:38,621976.0,0.0,0.0
12:56:38,621863.0,0.0,0.0
12:56:38,622026.0,0.0,0.0
12:56:38,622137.0,0.0,0.0
12:56:38,622071.0,0.0,0.0
12:56:38,622326.0,0.0,0.0
12:56:38,622203.0,0.0,0.0
12:56:38,622339.0,0.0,0.0
12:56:38,622444.0,0.0,0.0
12:56:38,622363.0,0.0,0.0
12:56:38,622573.0,0.0,0.0
12:56:38,622504.0,0.0,0.0
12:56:38,622747.0,0.0,0.0
12:56:38,622917.0,0.0,0.0
12:56:38,622957.0,0.0,0.0
12:56:38,623098.0,0.0,0.0
12:56:38,622896.0,0.0,0.0
12:56:38,622967.0,0.0,0.0
12:56:38,623053.0,0.0,0.0
12:56:38,623018.0,0.0,0.0
12:56:38,623218.0,0.0,0.0
12:56:38,623111.0,0.0,0.0
12:56:38,623184.0,0.0,0.0
12:56:38,623181.0,0.0,0.0
12:56:38,623109.0,0.0,0.0
12:56:38,623213.0,0.0,0.0
12:56:38,623050.0,0.0,0.0
12:56:38,623112.0,0.0,0.0
12:56:38,623092.0,0.0,0.0
12:56:38,622992.0,0.0,0.0
12:56:38,623068.0,0.0,0.0
12:56:38,622909.0,0.0,0.0
12:56:38,622972.0,0.0,0.0
12:56:38,622994.0,0.0,0.0
12:56:38,622910.0,0.0,0.0
12:56:38,623009.0,0.0,0.0
12:56:38,622887.0,0.0,0.0
12:56:38,622968.0,0.0,0.0
12:56:38,622904.0,0.0,0.0
12:56:38,622761.0,0.0,0.0
12:56:38,622814.0,0.0,0.0
12:56:38,622701.0,0.0,0.0
12:56:38,622809.0,0.0,0.0
12:56:39,622811.0,0.0,0.0
12:56:39,622801.0,0.0,0.0
12:56:39,622896.0,0.0,0.0
12:56:39,622795.0,0.0,0.0
12:56:39,622854.0,0.0,0.0
12:56:39,622818.0,0.0,0.0
12:56:39,622713.0,0.0,0.0
12:56:39,622735.0,0.0,0.0
12:56:39,622555.0,0.0,0.0
12:56:39,622593.0,0.0,0.0
12:56:39,622575.0,0.0,0.0
12:56:39,622456.0,0.0,0.0
12:56:39,622488.0,0.0,0.0
12:56:39,622343.0,0.0,0.0
12:56:39,622399.0,0.0,0.0
12:56:39,622383.0,0.0,0.0
12:56:39,622349.0,0.0,0.0
12:56:39,622411.0,0.0,0.0
12:56:39,622226.0,0.0,0.0
12:56:39,622223.0,0.0,0.0
12:56:39,622052.0,0.0,0.0
12:56:39,621793.0,0.0,0.0
12:56:39,621699.0,0.0,0.0
12:56:39,621454.0,0.0,0.0
12:56:39,621371.0,0.0,0.0
12:56:39,621289.0,0.0,0.0
12:56:39,621194.0,0.0,0.0
12:56:39,621296.0,0.0,0.0
12:56:39,621174.0,0.0,0.0
12:56:39,621325.0,0.0,0.0
12:56:39,621380.0,0.0,0.0
12:56:39,621353.0,0.0,0.0
12:56:39,621463.0,0.0,0.0
12:56:39,621293.0,0.0,0.0
12:56:39,621169.0,0.0,0.0
12:56:39,620922.0,0.0,0.0
12:56:39,620496.0,0.0,0.0
12:56:39,620209.0,0.0,0.0
12:56:39,619996.0,0.0,0.0
12:56:39,620089.0,0.0,0.0
12:56:39,620106.0,0.0,0.0
12:56:39,620092.0,0.0,0.0
12:56:39,620221.0,0.0,0.0
12:56:39,620127.0,0.0,0.0
12:56:39,620187.0,0.0,0.0
12:56:39,620079.0,0.0,0.0
12:56:39,619936.0,0.0,0.0
12:56:39,620049.0,0.0,0.0
12:56:39,620098.0,0.0,0.0
12:56:39,620401.0,0.0,0.0
12:56:39,620603.0,0.0,0.0
12:56:39,620749.0,0.0,0.0
12:56:39,620779.0,0.0,0.0
12:56:39,620395.0,0.0,0.0
12:56:39,620274.0,0.0,0.0
12:56:39,620152.0,0.0,0.0
12:56:39,620060.0,0.0,0.0
12:56:39,620168.0,0.0,0.0
12:56:39,620083.0,0.0,0.0
12:56:39,620134.0,0.0,0.0
12:56:39,620025.0,0.0,0.0
12:56:39,619908.0,0.0,0.0
12:56:39,619844.0,0.0,0.0
12:56:39,619617.0,0.0,0.0
12:56:39,619564.0,0.0,0.0
12:56:39,619414.0,0.0,0.0
12:56:39,619194.0,0.0,0.0
12:56:39,619121.0,0.0,0.0
12:56:39,618874.0,0.0,0.0
12:56:39,618771.0,0.0,0.0
12:56:39,618548.0,0.0,0.0
12:56:39,618398.0,0.0,0.0
12:56:39,618408.0,0.0,0.0
12:56:39,618190.0,0.0,0.0
12:56:39,618199.0,0.0,0.0
12:56:39,618143.0,0.0,0.0
12:56:39,618089.0,0.0,0.0
12:56:39,618201.0,0.0,0.0
12:56:39,618154.0,0.0,0.0
12:56:39,618294.0,0.0,0.0
12:56:39,618341.0,0.0,0.0
12:56:39,618403.0,0.0,0.0
12:56:39,618606.0,0.0,0.0
12:56:39,618664.0,0.0,0.0
12:56:39,618930.0,0.0,0.0
12:56:39,619101.0,0.0,0.0
12:56:39,619350.0,0.0,0.0
12:56:39,619706.0,0.0,0.0
12:56:39,619882.0,0.0,0.0
12:56:39,620244.0,0.0,0.0
12:56:39,620456.0,0.0,0.0
12:56:39,620591.0,0.0,0.0
12:56:39,620810.0,0.0,0.0
12:56:39,620818.0,0.0,0.0
12:56:39,620992.0,0.0,0.0
12:56:39,621013.0,0.0,0.0
12:56:39,621086.0,0.0,0.0
12:56:39,621248.0,0.0,0.0
12:56:39,621189.0,0.0,0.0
12:56:39,621262.0,0.0,0.0
12:56:39,621232.0,0.0,0.0
12:56:39,621162.0,0.0,0.0
12:56:39,621236.0,0.0,0.0
12:56:39,621119.0,0.0,0.0
12:56:39,621157.0,0.0,0.0
12:56:39,621040.0,0.0,0.0
12:56:39,620894.0,0.0,0.0
12:56:39,620802.0,0.0,0.0
12:56:39,620554.0,0.0,0.0
12:56:39,620421.0,0.0,0.0
12:56:39,620189.0,0.0,0.0
12:56:39,620013.0,0.0,0.0
12:56:39,619925.0,0.0,0.0
12:56:39,619722.0,0.0,0.0
12:56:39,619678.0,0.0,0.0
12:56:39,619474.0,0.0,0.0
12:56:39,619338.0,0.0,0.0
12:56:39,619338.0,0.0,0.0
12:56:39,619216.0,0.0,0.0
12:56:39,619211.0,0.0,0.0
12:56:39,619101.0,0.0,0.0
12:56:39,619004.0,0.0,0.0
12:56:39,618975.0,0.0,0.0
12:56:39,618829.0,0.0,0.0
12:56:40,618867.0,0.0,0.0
12:56:40,618784.0,0.0,0.0
12:56:40,618747.0,0.0,0.0
12:56:40,618795.0,0.0,0.0
12:56:40,618721.0,0.0,0.0
12:56:40,618919.0,0.0,0.0
12:56:40,618997.0,0.0,0.0
12:56:40,619086.0,0.0,0.0
12:56:40,619055.0,0.0,0.0
12:56:40,618729.0,0.0,0.0
12:56:40,618643.0,0.0,0.0
12:56:40,618520.0,0.0,0.0
12:56:40,618422.0,0.0,0.0
12:56:40,618472.0,0.0,0.0
12:56:40,618339.0,0.0,0.0
12:56:40,618381.0,0.0,0.0
12:56:40,618314.0,0.0,0.0
12:56:40,618285.0,0.0,0.0
12:56:40,618423.0,0.0,0.0
12:56:40,618431.0,0.0,0.0
12:56:40,618585.0,0.0,0.0
12:56:40,618645.0,0.0,0.0
12:56:40,618744.0,0.0,0.0
12:56:40,618916.0,0.0,0.0
12:56:40,618926.0,0.0,0.0
12:56:40,619099.0,0.0,0.0
12:56:40,619121.0,0.0,0.0
12:56:40,619099.0,0.0,0.0
12:56:40,619074.0,0.0,0.0
12:56:40,618819.0,0.0,0.0
12:56:40,618787.0,0.0,0.0
12:56:40,618634.0,0.0,0.0
12:56:40,618539.0,0.0,0.0
12:56:40,618590.0,0.0,0.0
12:56:40,618469.0,0.0,0.0
12:56:40,618551.0,0.0,0.0
12:56:40,618509.0,0.0,0.0
12:56:40,618479.0,0.0,0.0
12:56:40,618488.0,0.0,0.0
12:56:40,618328.0,0.0,0.0
12:56:40,618346.0,0.0,0.0
12:56:40,618203.0,0.0,0.0
12:56:40,618143.0,0.0,0.0
12:56:40,618143.0,0.0,0.0
12:56:40,617954.0,0.0,0.0
12:56:40,617988.0,0.0,0.0
12:56:40,617916.0,0.0,0.0
12:56:40,617893.0,0.0,0.0
12:56:40,617919.0,0.0,0.0
12:56:40,617803.0,0.0,0.0
12:56:40,617887.0,0.0,0.0
12:56:40,617858.0,0.0,0.0
12:56:40,617891.0,0.0,0.0
12:56:40,617988.0,0.0,0.0
12:56:40,617931.0,0.0,0.0
12:56:40,618057.0,0.0,0.0
12:56:40,618020.0,0.0,0.0
12:56:40,618075.0,0.0,0.0
12:56:40,618215.0,0.0,0.0
12:56:40,618134.0,0.0,0.0
12:56:40,618271.0,0.0,0.0
12:56:40,618268.0,0.0,0.0
12:56:40,618328.0,0.0,0.0
12:56:40,618454.0,0.0,0.0
12:56:40,618426.0,0.0,0.0
12:56:40,618554.0,0.0,0.0
12:56:40,618498.0,0.0,0.0
12:56:40,618392.0,0.0,0.0
12:56:40,618381.0,0.0,0.0
12:56:40,618154.0,0.0,0.0
12:56:40,618148.0,0.0,0.0
12:56:40,618026.0,0.0,0.0
12:56:40,618024.0,0.0,0.0
12:56:40,618115.0,0.0,0.0
12:56:40,618010.0,0.0,0.0
12:56:40,618116.0,0.0,0.0
12:56:40,618074.0,0.0,0.0
12:56:40,618077.0,0.0,0.0
12:56:40,618131.0,0.0,0.0
12:56:40,618060.0,0.0,0.0
12:56:40,618161.0,0.0,0.0
12:56:40,618083.0,0.0,0.0
12:56:40,618130.0,0.0,0.0
12:56:40,618271.0,0.0,0.0
12:56:40,618207.0,0.0,0.0
12:56:40,618304.0,0.0,0.0
12:56:40,618216.0,0.0,0.0
12:56:40,618246.0,0.0,0.0
12:56:40,618284.0,0.0,0.0
12:56:40,618231.0,0.0,0.0
12:56:40,618316.0,0.0,0.0
12:56:40,618258.0,0.0,0.0
12:56:40,618301.0,0.0,0.0
12:56:40,618411.0,0.0,0.0
12:56:40,618368.0,0.0,0.0
12:56:40,618433.0,0.0,0.0
12:56:40,618361.0,0.0,0.0
12:56:40,618308.0,0.0,0.0
12:56:40,618274.0,0.0,0.0
12:56:40,618177.0,0.0,0.0
12:56:40,618224.0,0.0,0.0
12:56:40,618098.0,0.0,0.0
12:56:40,618037.0,0.0,0.0
12:56:40,618034.0,0.0,0.0
12:56:40,617831.0,0.0,0.0
12:56:40,617822.0,0.0,0.0
12:56:40,617746.0,0.0,0.0
12:56:40,617809.0,0.0,0.0
12:56:40,617967.0,0.0,0.0
12:56:40,617913.0,0.0,0.0
12:56:40,617847.0,0.0,0.0
12:56:40,617629.0,0.0,0.0
12:56:40,617563.0,0.0,0.0
12:56:40,617639.0,0.0,0.0
12:56:40,617541.0,0.0,0.0
12:56:40,617668.0,0.0,0.0
12:56:40,617647.0,0.0,0.0
12:56:40,617662.0,0.0,0.0
12:56:40,617742.0,0.0,0.0
12:56:40,617681.0,0.0,0.0
12:56:40,617823.0,0.0,0.0
12:56:40,617851.0,0.0,0.0
12:56:40,617983.0,0.0,0.0
12:56:40,618149.0,0.0,0.0
12:56:40,618198.0,0.0,0.0
12:56:41,618439.0,0.0,0.0
12:56:41,618563.0,0.0,0.0
12:56:41,618737.0,0.0,0.0
12:56:41,618992.0,0.0,0.0
12:56:41,619046.0,0.0,0.0
12:56:41,619288.0,0.0,0.0
12:56:41,619401.0,0.0,0.0
12:56:41,619569.0,0.0,0.0
12:56:41,619764.0,0.0,0.0
12:56:41,619768.0,0.0,0.0
12:56:41,619921.0,0.0,0.0
12:56:41,619956.0,0.0,0.0
12:56:41,620025.0,0.0,0.0
12:56:41,620077.0,0.0,0.0
12:56:41,619959.0,0.0,0.0
12:56:41,620029.0,0.0,0.0
12:56:41,619941.0,0.0,0.0
12:56:41,619924.0,0.0,0.0
12:56:41,619932.0,0.0,0.0
12:56:41,619779.0,0.0,0.0
12:56:41,619818.0,0.0,0.0
12:56:41,619712.0,0.0,0.0
12:56:41,619666.0,0.0,0.0
12:56:41,619696.0,0.0,0.0
12:56:41,619564.0,0.0,0.0
12:56:41,619583.0,0.0,0.0
12:56:41,619423.0,0.0,0.0
12:56:41,619363.0,0.0,0.0
12:56:41,619375.0,0.0,0.0
12:56:41,619311.0,0.0,0.0
12:56:41,619369.0,0.0,0.0
12:56:41,618786.0,0.0,0.0
12:56:41,618059.0,0.0,0.0
12:56:41,617840.0,0.0,0.0
12:56:41,617585.0,0.0,0.0
12:56:41,617315.0,0.0,0.0
12:56:41,616874.0,0.0,0.0
12:56:41,616660.0,0.0,0.0
12:56:41,616392.0,0.0,0.0
12:56:41,615946.0,0.0,0.0
12:56:41,615853.0,0.0,0.0
12:56:41,615679.0,0.0,0.0
12:56:41,615503.0,0.0,0.0
12:56:41,615525.0,0.0,0.0
12:56:41,615526.0,0.0,0.0
12:56:41,615776.0,0.0,0.0
12:56:41,615890.0,0.0,0.0
12:56:41,615966.0,0.0,0.0
12:56:41,615769.0,0.0,0.0
12:56:41,615290.0,0.0,0.0
12:56:41,615381.0,0.0,0.0
12:56:41,615919.0,0.0,0.0
12:56:41,616419.0,0.0,0.0
12:56:41,616404.0,0.0,0.0
12:56:41,616138.0,0.0,0.0
12:56:41,616244.0,0.0,0.0
12:56:41,616184.0,0.0,0.0
12:56:41,616041.0,0.0,0.0
12:56:41,615933.0,0.0,0.0
12:56:41,615624.0,0.0,0.0
12:56:41,615483.0,0.0,0.0
12:56:41,615265.0,0.0,0.0
12:56:41,615149.0,0.0,0.0
12:56:41,615104.0,0.0,0.0
12:56:41,614970.0,0.0,0.0
12:56:41,615011.0,0.0,0.0
12:56:41,614934.0,0.0,0.0
12:56:41,614922.0,0.0,0.0
12:56:41,614891.0,0.0,0.0
12:56:41,614794.0,0.0,0.0
12:56:41,614829.0,0.0,0.0
12:56:41,614711.0,0.0,0.0
12:56:41,614688.0,0.0,0.0
12:56:41,614642.0,0.0,0.0
12:56:41,614546.0,0.0,0.0
12:56:41,614546.0,0.0,0.0
12:56:41,614313.0,0.0,0.0
12:56:41,614174.0,0.0,0.0
12:56:41,614104.0,0.0,0.0
12:56:41,614049.0,0.0,0.0
12:56:41,614226.0,0.0,0.0
12:56:41,614187.0,0.0,0.0
12:56:41,614106.0,0.0,0.0
12:56:41,614033.0,0.0,0.0
12:56:41,614045.0,0.0,0.0
12:56:41,614203.0,0.0,0.0
12:56:41,614179.0,0.0,0.0
12:56:41,614299.0,0.0,0.0
12:56:41,614477.0,0.0,0.0
12:56:41,614569.0,0.0,0.0
12:56:41,614755.0,0.0,0.0
12:56:41,614708.0,0.0,0.0
12:56:41,614679.0,0.0,0.0
12:56:41,614554.0,0.0,0.0
12:56:41,614389.0,0.0,0.0
12:56:41,614428.0,0.0,0.0
12:56:41,614321.0,0.0,0.0
12:56:41,614284.0,0.0,0.0
12:56:41,614235.0,0.0,0.0
12:56:41,614198.0,0.0,0.0
12:56:41,614393.0,0.0,0.0
12:56:41,614408.0,0.0,0.0
12:56:41,614513.0,0.0,0.0
12:56:41,614659.0,0.0,0.0
12:56:41,614674.0,0.0,0.0
12:56:41,614880.0,0.0,0.0
12:56:41,614938.0,0.0,0.0
12:56:41,614980.0,0.0,0.0
12:56:41,615020.0,0.0,0.0
12:56:41,614953.0,0.0,0.0
12:56:41,615033.0,0.0,0.0
12:56:41,614952.0,0.0,0.0
12:56:41,615001.0,0.0,0.0
12:56:41,615047.0,0.0,0.0
12:56:41,615013.0,0.0,0.0
12:56:41,615158.0,0.0,0.0
12:56:41,615120.0,0.0,0.0
12:56:41,615205.0,0.0,0.0
12:56:41,615294.0,0.0,0.0
12:56:41,615269.0,0.0,0.0
12:56:41,615409.0,0.0,0.0
12:56:41,615410.0,0.0,0.0
12:56:41,615548.0,0.0,0.0
12:56:41,615622.0,0.0,0.0
12:56:41,615572.0,0.0,0.0
12:56:42,615706.0,0.0,0.0
12:56:42,615713.0,0.0,0.0
12:56:42,615794.0,0.0,0.0
12:56:42,615823.0,0.0,0.0
12:56:42,615783.0,0.0,0.0
12:56:42,615868.0,0.0,0.0
12:56:42,615774.0,0.0,0.0
12:56:42,615784.0,0.0,0.0
12:56:42,615791.0,0.0,0.0
12:56:42,615743.0,0.0,0.0
12:56:42,615856.0,0.0,0.0
12:56:42,615866.0,0.0,0.0
12:56:42,616077.0,0.0,0.0
12:56:42,616309.0,0.0,0.0
12:56:42,616463.0,0.0,0.0
12:56:42,616754.0,0.0,0.0
12:56:42,616861.0,0.0,0.0
12:56:42,617017.0,0.0,0.0
12:56:42,617113.0,0.0,0.0
12:56:42,617032.0,0.0,0.0
12:56:42,617171.0,0.0,0.0
12:56:42,617151.0,0.0,0.0
12:56:42,617217.0,0.0,0.0
12:56:42,617303.0,0.0,0.0
12:56:42,617331.0,0.0,0.0
12:56:42,617453.0,0.0,0.0
12:56:42,617443.0,0.0,0.0
12:56:42,617554.0,0.0,0.0
12:56:42,617659.0,0.0,0.0
12:56:42,617687.0,0.0,0.0
12:56:42,617830.0,0.0,0.0
12:56:42,617803.0,0.0,0.0
12:56:42,617894.0,0.0,0.0
12:56:42,617973.0,0.0,0.0
12:56:42,617945.0,0.0,0.0
12:56:42,618031.0,0.0,0.0
12:56:42,617948.0,0.0,0.0
12:56:42,617990.0,0.0,0.0
12:56:42,618029.0,0.0,0.0
12:56:42,618111.0,0.0,0.0
12:56:42,618423.0,0.0,0.0
12:56:42,618349.0,0.0,0.0
12:56:42,618158.0,0.0,0.0
12:56:42,617923.0,0.0,0.0
12:56:42,617710.0,0.0,0.0
12:56:42,617694.0,0.0,0.0
12:56:42,617508.0,0.0,0.0
12:56:42,617441.0,0.0,0.0
12:56:42,617323.0,0.0,0.0
12:56:42,617206.0,0.0,0.0
12:56:42,617232.0,0.0,0.0
12:56:42,617078.0,0.0,0.0
12:56:42,617088.0,0.0,0.0
12:56:42,617036.0,0.0,0.0
12:56:42,616918.0,0.0,0.0
12:56:42,616966.0,0.0,0.0
12:56:42,616836.0,0.0,0.0
12:56:42,616864.0,0.0,0.0
12:56:42,616885.0,0.0,0.0
12:56:42,616818.0,0.0,0.0
12:56:42,616911.0,0.0,0.0
12:56:42,616829.0,0.0,0.0
12:56:42,616852.0,0.0,0.0
12:56:42,616841.0,0.0,0.0
12:56:42,616779.0,0.0,0.0
12:56:42,616834.0,0.0,0.0
12:56:42,616720.0,0.0,0.0
12:56:42,616717.0,0.0,0.0
12:56:42,616690.0,0.0,0.0
12:56:42,616619.0,0.0,0.0
12:56:42,616671.0,0.0,0.0
12:56:42,616619.0,0.0,0.0
12:56:42,616759.0,0.0,0.0
12:56:42,616866.0,0.0,0.0
12:56:42,616865.0,0.0,0.0
12:56:42,616977.0,0.0,0.0
12:56:42,616892.0,0.0,0.0
12:56:42,616962.0,0.0,0.0
12:56:42,617029.0,0.0,0.0
12:56:42,617036.0,0.0,0.0
12:56:42,617148.0,0.0,0.0
12:56:42,617048.0,0.0,0.0
12:56:42,617107.0,0.0,0.0
12:56:42,617105.0,0.0,0.0
12:56:42,617008.0,0.0,0.0
12:56:42,617011.0,0.0,0.0
12:56:42,616910.0,0.0,0.0
12:56:42,616947.0,0.0,0.0
12:56:42,616994.0,0.0,0.0
12:56:42,616937.0,0.0,0.0
12:56:42,616984.0,0.0,0.0
12:56:42,616914.0,0.0,0.0
12:56:42,617124.0,0.0,0.0
12:56:42,617198.0,0.0,0.0
12:56:42,617144.0,0.0,0.0
12:56:42,617199.0,0.0,0.0
12:56:42,617078.0,0.0,0.0
12:56:42,617041.0,0.0,0.0
12:56:42,617046.0,0.0,0.0
12:56:42,616994.0,0.0,0.0
12:56:42,617078.0,0.0,0.0
12:56:42,616977.0,0.0,0.0
12:56:42,617051.0,0.0,0.0
12:56:42,617033.0,0.0,0.0
12:56:42,616995.0,0.0,0.0
12:56:42,617114.0,0.0,0.0
12:56:42,616973.0,0.0,0.0
12:56:42,617028.0,0.0,0.0
12:56:42,617030.0,0.0,0.0
12:56:42,617015.0,0.0,0.0
12:56:42,617146.0,0.0,0.0
12:56:42,616905.0,0.0,0.0
12:56:42,616903.0,0.0,0.0
12:56:42,616992.0,0.0,0.0
12:56:42,616860.0,0.0,0.0
12:56:42,616833.0,0.0,0.0
12:56:42,616764.0,0.0,0.0
12:56:42,616917.0,0.0,0.0
12:56:42,617049.0,0.0,0.0
12:56:42,617191.0,0.0,0.0
12:56:42,617240.0,0.0,0.0
12:56:42,616993.0,0.0,0.0
12:56:42,616981.0,0.0,0.0
12:56:42,616955.0,0.0,0.0
12:56:42,616918.0,0.0,0.0
12:56:43,616972.0,0.0,0.0
12:56:43,616814.0,0.0,0.0
12:56:43,616871.0,0.0,0.0
12:56:43,616880.0,0.0,0.0
12:56:43,616807.0,0.0,0.0
12:56:43,616884.0,0.0,0.0
12:56:43,616811.0,0.0,0.0
12:56:43,616848.0,0.0,0.0
12:56:43,616753.0,0.0,0.0
12:56:43,616627.0,0.0,0.0
12:56:43,616715.0,0.0,0.0
12:56:43,616650.0,0.0,0.0
12:56:43,616672.0,0.0,0.0
12:56:43,616603.0,0.0,0.0
12:56:43,616569.0,0.0,0.0
12:56:43,616671.0,0.0,0.0
12:56:43,616631.0,0.0,0.0
12:56:43,616724.0,0.0,0.0
12:56:43,616702.0,0.0,0.0
12:56:43,616633.0,0.0,0.0
12:56:43,616708.0,0.0,0.0
12:56:43,616628.0,0.0,0.0
12:56:43,616746.0,0.0,0.0
12:56:43,616731.0,0.0,0.0
12:56:43,616639.0,0.0,0.0
12:56:43,616676.0,0.0,0.0
12:56:43,616536.0,0.0,0.0
12:56:43,616621.0,0.0,0.0
12:56:43,616610.0,0.0,0.0
12:56:43,616503.0,0.0,0.0
12:56:43,616534.0,0.0,0.0
12:56:43,616379.0,0.0,0.0
12:56:43,616393.0,0.0,0.0
12:56:43,616311.0,0.0,0.0
12:56:43,616194.0,0.0,0.0
12:56:43,616196.0,0.0,0.0
12:56:43,615961.0,0.0,0.0
12:56:43,615977.0,0.0,0.0
12:56:43,615863.0,0.0,0.0
12:56:43,615729.0,0.0,0.0
12:56:43,615839.0,0.0,0.0
12:56:43,615693.0,0.0,0.0
12:56:43,615756.0,0.0,0.0
12:56:43,615728.0,0.0,0.0
12:56:43,615661.0,0.0,0.0
12:56:43,615699.0,0.0,0.0
12:56:43,615543.0,0.0,0.0
12:56:43,615574.0,0.0,0.0
12:56:43,615507.0,0.0,0.0
12:56:43,615419.0,0.0,0.0
12:56:43,615481.0,0.0,0.0
12:56:43,615346.0,0.0,0.0
12:56:43,615391.0,0.0,0.0
12:56:43,615326.0,0.0,0.0
12:56:43,615219.0,0.0,0.0
12:56:43,615321.0,0.0,0.0
12:56:43,615173.0,0.0,0.0
12:56:43,615260.0,0.0,0.0
12:56:43,615184.0,0.0,0.0
12:56:43,615096.0,0.0,0.0
12:56:43,615152.0,0.0,0.0
12:56:43,614979.0,0.0,0.0
12:56:43,615048.0,0.0,0.0
12:56:43,614963.0,0.0,0.0
12:56:43,614872.0,0.0,0.0
12:56:43,614933.0,0.0,0.0
12:56:43,614828.0,0.0,0.0
12:56:43,615040.0,0.0,0.0
12:56:43,615094.0,0.0,0.0
12:56:43,615066.0,0.0,0.0
12:56:43,615023.0,0.0,0.0
12:56:43,614703.0,0.0,0.0
12:56:43,614773.0,0.0,0.0
12:56:43,614754.0,0.0,0.0
12:56:43,614755.0,0.0,0.0
12:56:43,614898.0,0.0,0.0
12:56:43,614733.0,0.0,0.0
12:56:43,614823.0,0.0,0.0
12:56:43,614766.0,0.0,0.0
12:56:43,614672.0,0.0,0.0
12:56:43,614749.0,0.0,0.0
12:56:43,614551.0,0.0,0.0
12:56:43,614697.0,0.0,0.0
12:56:43,614610.0,0.0,0.0
12:56:43,614504.0,0.0,0.0
12:56:43,614686.0,0.0,0.0
12:56:43,614469.0,0.0,0.0
12:56:43,614624.0,0.0,0.0
12:56:43,614611.0,0.0,0.0
12:56:43,614578.0,0.0,0.0
12:56:43,614803.0,0.0,0.0
12:56:43,614470.0,0.0,0.0
12:56:43,614556.0,0.0,0.0
12:56:43,614669.0,0.0,0.0
12:56:43,614574.0,0.0,0.0
12:56:43,614809.0,0.0,0.0
12:56:43,614615.0,0.0,0.0
12:56:43,614747.0,0.0,0.0
12:56:43,614707.0,0.0,0.0
12:56:43,614602.0,0.0,0.0
12:56:43,614769.0,0.0,0.0
12:56:43,614548.0,0.0,0.0
12:56:43,614679.0,0.0,0.0
12:56:43,614636.0,0.0,0.0
12:56:43,614513.0,0.0,0.0
12:56:43,614709.0,0.0,0.0
12:56:43,614488.0,0.0,0.0
12:56:43,614620.0,0.0,0.0
12:56:43,614545.0,0.0,0.0
12:56:43,614432.0,0.0,0.0
12:56:43,614605.0,0.0,0.0
12:56:43,614363.0,0.0,0.0
12:56:43,614507.0,0.0,0.0
12:56:43,614454.0,0.0,0.0
12:56:43,614379.0,0.0,0.0
12:56:43,614554.0,0.0,0.0
12:56:43,614333.0,0.0,0.0
12:56:43,614441.0,0.0,0.0
12:56:43,614354.0,0.0,0.0
12:56:43,614303.0,0.0,0.0
12:56:43,614495.0,0.0,0.0
12:56:43,614276.0,0.0,0.0
12:56:43,614413.0,0.0,0.0
12:56:43,614378.0,0.0,0.0
12:56:43,614301.0,0.0,0.0
12:56:44,614468.0,0.0,0.0
12:56:44,614218.0,0.0,0.0
12:56:44,614396.0,0.0,0.0
12:56:44,614354.0,0.0,0.0
12:56:44,614266.0,0.0,0.0
12:56:44,614461.0,0.0,0.0
12:56:44,614182.0,0.0,0.0
12:56:44,614350.0,0.0,0.0
12:56:44,614274.0,0.0,0.0
12:56:44,614138.0,0.0,0.0
12:56:44,614326.0,0.0,0.0
12:56:44,614076.0,0.0,0.0
12:56:44,614218.0,0.0,0.0
12:56:44,614134.0,0.0,0.0
12:56:44,614073.0,0.0,0.0
12:56:44,614339.0,0.0,0.0
12:56:44,614208.0,0.0,0.0
12:56:44,614437.0,0.0,0.0
12:56:44,614266.0,0.0,0.0
12:56:44,614061.0,0.0,0.0
12:56:44,614166.0,0.0,0.0
12:56:44,613950.0,0.0,0.0
12:56:44,614140.0,0.0,0.0
12:56:44,614082.0,0.0,0.0
12:56:44,614054.0,0.0,0.0
12:56:44,614196.0,0.0,0.0
12:56:44,613949.0,0.0,0.0
12:56:44,614129.0,0.0,0.0
12:56:44,614064.0,0.0,0.0
12:56:44,613996.0,0.0,0.0
12:56:44,614178.0,0.0,0.0
12:56:44,613942.0,0.0,0.0
12:56:44,614135.0,0.0,0.0
12:56:44,614079.0,0.0,0.0
12:56:44,614041.0,0.0,0.0
12:56:44,614222.0,0.0,0.0
12:56:44,614029.0,0.0,0.0
12:56:44,614207.0,0.0,0.0
12:56:44,614114.0,0.0,0.0
12:56:44,614038.0,0.0,0.0
12:56:44,614202.0,0.0,0.0
12:56:44,613987.0,0.0,0.0
12:56:44,614109.0,0.0,0.0
12:56:44,614023.0,0.0,0.0
12:56:44,613940.0,0.0,0.0
12:56:44,614013.0,0.0,0.0
12:56:44,613757.0,0.0,0.0
12:56:44,613818.0,0.0,0.0
12:56:44,613673.0,0.0,0.0
12:56:44,613623.0,0.0,0.0
12:56:44,613859.0,0.0,0.0
12:56:44,613786.0,0.0,0.0
12:56:44,613958.0,0.0,0.0
12:56:44,613778.0,0.0,0.0
12:56:44,613648.0,0.0,0.0
12:56:44,613613.0,0.0,0.0
12:56:44,613289.0,0.0,0.0
12:56:44,613264.0,0.0,0.0
12:56:44,612964.0,0.0,0.0
12:56:44,612752.0,0.0,0.0
12:56:44,612659.0,0.0,0.0
12:56:44,612380.0,0.0,0.0
12:56:44,612476.0,0.0,0.0
12:56:44,612252.0,0.0,0.0
12:56:44,612259.0,0.0,0.0
12:56:44,612285.0,0.0,0.0
12:56:44,612072.0,0.0,0.0
12:56:44,612228.0,0.0,0.0
12:56:44,612070.0,0.0,0.0
12:56:44,612131.0,0.0,0.0
12:56:44,612208.0,0.0,0.0
12:56:44,612114.0,0.0,0.0
12:56:44,612396.0,0.0,0.0
12:56:44,612354.0,0.0,0.0
12:56:44,612513.0,0.0,0.0
12:56:44,612671.0,0.0,0.0
12:56:44,612601.0,0.0,0.0
12:56:44,612823.0,0.0,0.0
12:56:44,612720.0,0.0,0.0
12:56:44,612852.0,0.0,0.0
12:56:44,612983.0,0.0,0.0
12:56:44,612936.0,0.0,0.0
12:56:44,613181.0,0.0,0.0
12:56:44,613124.0,0.0,0.0
12:56:44,613235.0,0.0,0.0
12:56:44,613364.0,0.0,0.0
12:56:44,613291.0,0.0,0.0
12:56:44,613575.0,0.0,0.0
12:56:44,613500.0,0.0,0.0
12:56:44,613628.0,0.0,0.0
12:56:44,613789.0,0.0,0.0
12:56:44,613664.0,0.0,0.0
12:56:44,613982.0,0.0,0.0
12:56:44,614029.0,0.0,0.0
12:56:44,614243.0,0.0,0.0
12:56:44,614378.0,0.0,0.0
12:56:44,614093.0,0.0,0.0
12:56:44,614181.0,0.0,0.0
12:56:44,614083.0,0.0,0.0
12:56:44,614110.0,0.0,0.0
12:56:44,614194.0,0.0,0.0
12:56:44,614138.0,0.0,0.0
12:56:44,614337.0,0.0,0.0
12:56:44,614355.0,0.0,0.0
12:56:44,614396.0,0.0,0.0
12:56:44,614457.0,0.0,0.0
12:56:44,614365.0,0.0,0.0
12:56:44,614501.0,0.0,0.0
12:56:44,614451.0,0.0,0.0
12:56:44,614488.0,0.0,0.0
12:56:44,614622.0,0.0,0.0
12:56:44,614574.0,0.0,0.0
12:56:44,614747.0,0.0,0.0
12:56:44,614693.0,0.0,0.0
12:56:44,614798.0,0.0,0.0
12:56:44,614939.0,0.0,0.0
12:56:44,614851.0,0.0,0.0
12:56:44,615008.0,0.0,0.0
12:56:44,614954.0,0.0,0.0
12:56:44,615036.0,0.0,0.0
12:56:44,615123.0,0.0,0.0
12:56:44,615106.0,0.0,0.0
12:56:44,615299.0,0.0,0.0
12:56:44,615266.0,0.0,0.0
12:56:44,615342.0,0.0,0.0
12:56:45,615476.0,0.0,0.0
12:56:45,615430.0,0.0,0.0
12:56:45,615611.0,0.0,0.0
12:56:45,615568.0,0.0,0.0
12:56:45,615673.0,0.0,0.0
12:56:45,615789.0,0.0,0.0
12:56:45,615782.0,0.0,0.0
12:56:45,615991.0,0.0,0.0
12:56:45,615984.0,0.0,0.0
12:56:45,616064.0,0.0,0.0
12:56:45,616163.0,0.0,0.0
12:56:45,616199.0,0.0,0.0
12:56:45,616344.0,0.0,0.0
12:56:45,616263.0,0.0,0.0
12:56:45,616241.0,0.0,0.0
12:56:45,616293.0,0.0,0.0
12:56:45,616246.0,0.0,0.0
12:56:45,616364.0,0.0,0.0
12:56:45,616274.0,0.0,0.0
12:56:45,616324.0,0.0,0.0
12:56:45,616396.0,0.0,0.0
12:56:45,616316.0,0.0,0.0
12:56:45,616463.0,0.0,0.0
12:56:45,616406.0,0.0,0.0
12:56:45,616457.0,0.0,0.0
12:56:45,616516.0,0.0,0.0
12:56:45,616429.0,0.0,0.0
12:56:45,616540.0,0.0,0.0
12:56:45,616443.0,0.0,0.0
12:56:45,616499.0,0.0,0.0
12:56:45,616576.0,0.0,0.0
12:56:45,616494.0,0.0,0.0
12:56:45,616580.0,0.0,0.0
12:56:45,616490.0,0.0,0.0
12:56:45,616526.0,0.0,0.0
12:56:45,616576.0,0.0,0.0
12:56:45,616453.0,0.0,0.0
12:56:45,616549.0,0.0,0.0
12:56:45,616416.0,0.0,0.0
12:56:45,616376.0,0.0,0.0
12:56:45,616414.0,0.0,0.0
12:56:45,616324.0,0.0,0.0
12:56:45,616402.0,0.0,0.0
12:56:45,616289.0,0.0,0.0
12:56:45,616256.0,0.0,0.0
12:56:45,616268.0,0.0,0.0
12:56:45,616153.0,0.0,0.0
12:56:45,616238.0,0.0,0.0
12:56:45,616134.0,0.0,0.0
12:56:45,616254.0,0.0,0.0
12:56:45,616342.0,0.0,0.0
12:56:45,616271.0,0.0,0.0
12:56:45,616488.0,0.0,0.0
12:56:45,616331.0,0.0,0.0
12:56:45,616416.0,0.0,0.0
12:56:45,616502.0,0.0,0.0
12:56:45,616354.0,0.0,0.0
12:56:45,616505.0,0.0,0.0
12:56:45,616405.0,0.0,0.0
12:56:45,616385.0,0.0,0.0
12:56:45,616402.0,0.0,0.0
12:56:45,616348.0,0.0,0.0
12:56:45,616438.0,0.0,0.0
12:56:45,616282.0,0.0,0.0
12:56:45,616350.0,0.0,0.0
12:56:45,616336.0,0.0,0.0
12:56:45,616243.0,0.0,0.0
12:56:45,616391.0,0.0,0.0
12:56:45,616234.0,0.0,0.0
12:56:45,616341.0,0.0,0.0
12:56:45,616594.0,0.0,0.0
12:56:45,616695.0,0.0,0.0
12:56:45,616848.0,0.0,0.0
12:56:45,616559.0,0.0,0.0
12:56:45,616504.0,0.0,0.0
12:56:45,616506.0,0.0,0.0
12:56:45,616421.0,0.0,0.0
12:56:45,616571.0,0.0,0.0
12:56:45,616481.0,0.0,0.0
12:56:45,616566.0,0.0,0.0
12:56:45,616652.0,0.0,0.0
12:56:45,616583.0,0.0,0.0
12:56:45,616709.0,0.0,0.0
12:56:45,616662.0,0.0,0.0
12:56:45,616699.0,0.0,0.0
12:56:45,616742.0,0.0,0.0
12:56:45,616681.0,0.0,0.0
12:56:45,616838.0,0.0,0.0
12:56:45,616712.0,0.0,0.0
12:56:45,616751.0,0.0,0.0
12:56:45,616820.0,0.0,0.0
12:56:45,616750.0,0.0,0.0
12:56:45,616846.0,0.0,0.0
12:56:45,616766.0,0.0,0.0
12:56:45,616849.0,0.0,0.0
12:56:45,616948.0,0.0,0.0
12:56:45,616889.0,0.0,0.0
12:56:45,617039.0,0.0,0.0
12:56:45,616996.0,0.0,0.0
12:56:45,617166.0,0.0,0.0
12:56:45,617335.0,0.0,0.0
12:56:45,617365.0,0.0,0.0
12:56:45,617669.0,0.0,0.0
12:56:45,617666.0,0.0,0.0
12:56:45,617769.0,0.0,0.0
12:56:45,617841.0,0.0,0.0
12:56:45,617763.0,0.0,0.0
12:56:45,617806.0,0.0,0.0
12:56:45,617654.0,0.0,0.0
12:56:45,617656.0,0.0,0.0
12:56:45,617604.0,0.0,0.0
12:56:45,617465.0,0.0,0.0
12:56:45,617540.0,0.0,0.0
12:56:45,617376.0,0.0,0.0
12:56:45,617388.0,0.0,0.0
12:56:45,617386.0,0.0,0.0
12:56:45,617304.0,0.0,0.0
12:56:45,617409.0,0.0,0.0
12:56:45,617354.0,0.0,0.0
12:56:45,617477.0,0.0,0.0
12:56:45,617478.0,0.0,0.0
12:56:45,617378.0,0.0,0.0
12:56:45,617438.0,0.0,0.0
12:56:45,617269.0,0.0,0.0
12:56:45,617266.0,0.0,0.0
12:56:46,617240.0,0.0,0.0
12:56:46,617096.0,0.0,0.0
12:56:46,617152.0,0.0,0.0
12:56:46,616955.0,0.0,0.0
12:56:46,616946.0,0.0,0.0
12:56:46,616890.0,0.0,0.0
12:56:46,616714.0,0.0,0.0
12:56:46,616778.0,0.0,0.0
12:56:46,616636.0,0.0,0.0
12:56:46,616626.0,0.0,0.0
12:56:46,616623.0,0.0,0.0
12:56:46,616571.0,0.0,0.0
12:56:46,616691.0,0.0,0.0
12:56:46,616584.0,0.0,0.0
12:56:46,616676.0,0.0,0.0
12:56:46,616636.0,0.0,0.0
12:56:46,616539.0,0.0,0.0
12:56:46,616613.0,0.0,0.0
12:56:46,616490.0,0.0,0.0
12:56:46,616488.0,0.0,0.0
12:56:46,616409.0,0.0,0.0
12:56:46,616262.0,0.0,0.0
12:56:46,616294.0,0.0,0.0
12:56:46,616091.0,0.0,0.0
12:56:46,616098.0,0.0,0.0
12:56:46,616070.0,0.0,0.0
12:56:46,615996.0,0.0,0.0
12:56:46,616108.0,0.0,0.0
12:56:46,615955.0,0.0,0.0
12:56:46,616036.0,0.0,0.0
12:56:46,616055.0,0.0,0.0
12:56:46,616013.0,0.0,0.0
12:56:46,616144.0,0.0,0.0
12:56:46,616005.0,0.0,0.0
12:56:46,616031.0,0.0,0.0
12:56:46,616007.0,0.0,0.0
12:56:46,615888.0,0.0,0.0
12:56:46,615923.0,0.0,0.0
12:56:46,615703.0,0.0,0.0
12:56:46,615712.0,0.0,0.0
12:56:46,615759.0,0.0,0.0
12:56:46,615835.0,0.0,0.0
12:56:46,616119.0,0.0,0.0
12:56:46,615938.0,0.0,0.0
12:56:46,615775.0,0.0,0.0
12:56:46,615609.0,0.0,0.0
12:56:46,615498.0,0.0,0.0
12:56:46,615574.0,0.0,0.0
12:56:46,615393.0,0.0,0.0
12:56:46,615423.0,0.0,0.0
12:56:46,615390.0,0.0,0.0
12:56:46,615253.0,0.0,0.0
12:56:46,615280.0,0.0,0.0
12:56:46,615133.0,0.0,0.0
12:56:46,615179.0,0.0,0.0
12:56:46,615115.0,0.0,0.0
12:56:46,615083.0,0.0,0.0
12:56:46,615227.0,0.0,0.0
12:56:46,615114.0,0.0,0.0
12:56:46,615138.0,0.0,0.0
12:56:46,615123.0,0.0,0.0
12:56:46,615093.0,0.0,0.0
12:56:46,615202.0,0.0,0.0
12:56:46,615001.0,0.0,0.0
12:56:46,615072.0,0.0,0.0
12:56:46,615093.0,0.0,0.0
12:56:46,615034.0,0.0,0.0
12:56:46,615089.0,0.0,0.0
12:56:46,615021.0,0.0,0.0
12:56:46,615137.0,0.0,0.0
12:56:46,615038.0,0.0,0.0
12:56:46,614883.0,0.0,0.0
12:56:46,614967.0,0.0,0.0
12:56:46,614817.0,0.0,0.0
12:56:46,614828.0,0.0,0.0
12:56:46,614758.0,0.0,0.0
12:56:46,614671.0,0.0,0.0
12:56:46,614722.0,0.0,0.0
12:56:46,614583.0,0.0,0.0
12:56:46,614614.0,0.0,0.0
12:56:46,614553.0,0.0,0.0
12:56:46,614483.0,0.0,0.0
12:56:46,614571.0,0.0,0.0
12:56:46,614470.0,0.0,0.0
12:56:46,614554.0,0.0,0.0
12:56:46,614507.0,0.0,0.0
12:56:46,614469.0,0.0,0.0
12:56:46,614505.0,0.0,0.0
12:56:46,614403.0,0.0,0.0
12:56:46,614488.0,0.0,0.0
12:56:46,614441.0,0.0,0.0
12:56:46,614383.0,0.0,0.0
12:56:46,614529.0,0.0,0.0
12:56:46,614445.0,0.0,0.0
12:56:46,614449.0,0.0,0.0
12:56:46,614454.0,0.0,0.0
12:56:46,614453.0,0.0,0.0
12:56:46,614564.0,0.0,0.0
12:56:46,614468.0,0.0,0.0
12:56:46,614511.0,0.0,0.0
12:56:46,614502.0,0.0,0.0
12:56:46,614469.0,0.0,0.0
12:56:46,614557.0,0.0,0.0
12:56:46,614443.0,0.0,0.0
12:56:46,614562.0,0.0,0.0
12:56:46,614639.0,0.0,0.0
12:56:46,614685.0,0.0,0.0
12:56:46,614899.0,0.0,0.0
12:56:46,615158.0,0.0,0.0
12:56:46,615904.0,0.0,0.0
12:56:46,616281.0,0.0,0.0
12:56:46,616052.0,0.0,0.0
12:56:46,615606.0,0.0,0.0
12:56:46,615014.0,0.0,0.0
12:56:46,614673.0,0.0,0.0
12:56:46,614398.0,0.0,0.0
12:56:46,614340.0,0.0,0.0
12:56:46,614384.0,0.0,0.0
12:56:46,614313.0,0.0,0.0
12:56:46,614374.0,0.0,0.0
12:56:46,614331.0,0.0,0.0
12:56:46,614310.0,0.0,0.0
12:56:46,614486.0,0.0,0.0
12:56:46,614507.0,0.0,0.0
12:56:46,614571.0,0.0,0.0
12:56:47,614462.0,0.0,0.0
12:56:47,614451.0,0.0,0.0
12:56:47,614716.0,0.0,0.0
12:56:47,614756.0,0.0,0.0
12:56:47,614764.0,0.0,0.0
12:56:47,614813.0,0.0,0.0
12:56:47,614803.0,0.0,0.0
12:56:47,614883.0,0.0,0.0
12:56:47,614743.0,0.0,0.0
12:56:47,614645.0,0.0,0.0
12:56:47,614816.0,0.0,0.0
12:56:47,614811.0,0.0,0.0
12:56:47,614988.0,0.0,0.0
12:56:47,615336.0,0.0,0.0
12:56:47,615557.0,0.0,0.0
12:56:47,615438.0,0.0,0.0
12:56:47,615264.0,0.0,0.0
12:56:47,615366.0,0.0,0.0
12:56:47,615390.0,0.0,0.0
12:56:47,615544.0,0.0,0.0
12:56:47,615583.0,0.0,0.0
12:56:47,615598.0,0.0,0.0
12:56:47,615754.0,0.0,0.0
12:56:47,615734.0,0.0,0.0
12:56:47,615793.0,0.0,0.0
12:56:47,615752.0,0.0,0.0
12:56:47,615678.0,0.0,0.0
12:56:47,615790.0,0.0,0.0
12:56:47,615691.0,0.0,0.0
12:56:47,615752.0,0.0,0.0
12:56:47,615718.0,0.0,0.0
12:56:47,615617.0,0.0,0.0
12:56:47,615614.0,0.0,0.0
12:56:47,615483.0,0.0,0.0
12:56:47,615525.0,0.0,0.0
12:56:47,615468.0,0.0,0.0
12:56:47,615381.0,0.0,0.0
12:56:47,615389.0,0.0,0.0
12:56:47,615222.0,0.0,0.0
12:56:47,615259.0,0.0,0.0
12:56:47,615243.0,0.0,0.0
12:56:47,615237.0,0.0,0.0
12:56:47,615263.0,0.0,0.0
12:56:47,615175.0,0.0,0.0
12:56:47,615238.0,0.0,0.0
12:56:47,615182.0,0.0,0.0
12:56:47,615180.0,0.0,0.0
12:56:47,615232.0,0.0,0.0
12:56:47,615114.0,0.0,0.0
12:56:47,615113.0,0.0,0.0
12:56:47,615018.0,0.0,0.0
12:56:47,615006.0,0.0,0.0
12:56:47,615068.0,0.0,0.0
12:56:47,614924.0,0.0,0.0
12:56:47,614958.0,0.0,0.0
12:56:47,614908.0,0.0,0.0
12:56:47,614843.0,0.0,0.0
12:56:47,614859.0,0.0,0.0
12:56:47,614754.0,0.0,0.0
12:56:47,614763.0,0.0,0.0
12:56:47,614699.0,0.0,0.0
12:56:47,614645.0,0.0,0.0
12:56:47,614699.0,0.0,0.0
12:56:47,614607.0,0.0,0.0
12:56:47,614693.0,0.0,0.0
12:56:47,614651.0,0.0,0.0
12:56:47,614608.0,0.0,0.0
12:56:47,614662.0,0.0,0.0
12:56:47,614615.0,0.0,0.0
12:56:47,614751.0,0.0,0.0
12:56:47,614730.0,0.0,0.0
12:56:47,614714.0,0.0,0.0
12:56:47,614746.0,0.0,0.0
12:56:47,614641.0,0.0,0.0
12:56:47,614642.0,0.0,0.0
12:56:47,614553.0,0.0,0.0
12:56:47,614544.0,0.0,0.0
12:56:47,614598.0,0.0,0.0
12:56:47,614505.0,0.0,0.0
12:56:47,614565.0,0.0,0.0
12:56:47,614521.0,0.0,0.0
12:56:47,614493.0,0.0,0.0
12:56:47,614587.0,0.0,0.0
12:56:47,614531.0,0.0,0.0
12:56:47,614623.0,0.0,0.0
12:56:47,614624.0,0.0,0.0
12:56:47,614673.0,0.0,0.0
12:56:47,614731.0,0.0,0.0
12:56:47,614640.0,0.0,0.0
12:56:47,614733.0,0.0,0.0
12:56:47,614653.0,0.0,0.0
12:56:47,614613.0,0.0,0.0
12:56:47,614614.0,0.0,0.0
12:56:47,614491.0,0.0,0.0
12:56:47,614524.0,0.0,0.0
12:56:47,614362.0,0.0,0.0
12:56:47,614361.0,0.0,0.0
12:56:47,614612.0,0.0,0.0
12:56:47,614686.0,0.0,0.0
12:56:47,614624.0,0.0,0.0
12:56:47,614424.0,0.0,0.0
12:56:47,614348.0,0.0,0.0
12:56:47,614361.0,0.0,0.0
12:56:47,614295.0,0.0,0.0
12:56:47,614425.0,0.0,0.0
12:56:47,614483.0,0.0,0.0
12:56:47,614605.0,0.0,0.0
12:56:47,614784.0,0.0,0.0
12:56:47,614731.0,0.0,0.0
12:56:47,614853.0,0.0,0.0
12:56:47,614800.0,0.0,0.0
12:56:47,614719.0,0.0,0.0
12:56:47,614751.0,0.0,0.0
12:56:47,614616.0,0.0,0.0
12:56:47,614667.0,0.0,0.0
12:56:47,614536.0,0.0,0.0
12:56:47,614472.0,0.0,0.0
12:56:47,614469.0,0.0,0.0
12:56:47,614349.0,0.0,0.0
12:56:47,614461.0,0.0,0.0
12:56:47,614398.0,0.0,0.0
12:56:47,614385.0,0.0,0.0
12:56:47,614393.0,0.0,0.0
12:56:47,614303.0,0.0,0.0
12:56:47,614431.0,0.0,0.0
12:56:48,614354.0,0.0,0.0
12:56:48,614349.0,0.0,0.0
12:56:48,614439.0,0.0,0.0
12:56:48,614361.0,0.0,0.0
12:56:48,614519.0,0.0,0.0
12:56:48,614492.0,0.0,0.0
12:56:48,614532.0,0.0,0.0
12:56:48,614610.0,0.0,0.0
12:56:48,614563.0,0.0,0.0
12:56:48,614707.0,0.0,0.0
12:56:48,614648.0,0.0,0.0
12:56:48,614689.0,0.0,0.0
12:56:48,614768.0,0.0,0.0
12:56:48,614663.0,0.0,0.0
12:56:48,614799.0,0.0,0.0
12:56:48,614701.0,0.0,0.0
12:56:48,614666.0,0.0,0.0
12:56:48,614656.0,0.0,0.0
12:56:48,614514.0,0.0,0.0
12:56:48,614605.0,0.0,0.0
12:56:48,614533.0,0.0,0.0
12:56:48,614569.0,0.0,0.0
12:56:48,614669.0,0.0,0.0
12:56:48,614565.0,0.0,0.0
12:56:48,614670.0,0.0,0.0
12:56:48,614626.0,0.0,0.0
12:56:48,614594.0,0.0,0.0
12:56:48,614631.0,0.0,0.0
12:56:48,614468.0,0.0,0.0
12:56:48,614549.0,0.0,0.0
12:56:48,614463.0,0.0,0.0
12:56:48,614376.0,0.0,0.0
12:56:48,614399.0,0.0,0.0
12:56:48,614216.0,0.0,0.0
12:56:48,614302.0,0.0,0.0
12:56:48,614209.0,0.0,0.0
12:56:48,614172.0,0.0,0.0
12:56:48,614244.0,0.0,0.0
12:56:48,614079.0,0.0,0.0
12:56:48,614174.0,0.0,0.0
12:56:48,614124.0,0.0,0.0
12:56:48,614078.0,0.0,0.0
12:56:48,614189.0,0.0,0.0
12:56:48,614058.0,0.0,0.0
12:56:48,614148.0,0.0,0.0
12:56:48,614086.0,0.0,0.0
12:56:48,614131.0,0.0,0.0
12:56:48,614228.0,0.0,0.0
12:56:48,614108.0,0.0,0.0
12:56:48,614191.0,0.0,0.0
12:56:48,614103.0,0.0,0.0
12:56:48,614092.0,0.0,0.0
12:56:48,614263.0,0.0,0.0
12:56:48,614359.0,0.0,0.0
12:56:48,614593.0,0.0,0.0
12:56:48,614235.0,0.0,0.0
12:56:48,613957.0,0.0,0.0
12:56:48,613923.0,0.0,0.0
12:56:48,613819.0,0.0,0.0
12:56:48,614014.0,0.0,0.0
12:56:48,614024.0,0.0,0.0
12:56:48,614056.0,0.0,0.0
12:56:48,614169.0,0.0,0.0
12:56:48,614058.0,0.0,0.0
12:56:48,614196.0,0.0,0.0
12:56:48,614181.0,0.0,0.0
12:56:48,614190.0,0.0,0.0
12:56:48,614370.0,0.0,0.0
12:56:48,614339.0,0.0,0.0
12:56:48,614537.0,0.0,0.0
12:56:48,614434.0,0.0,0.0
12:56:48,614436.0,0.0,0.0
12:56:48,614527.0,0.0,0.0
12:56:48,614391.0,0.0,0.0
12:56:48,614516.0,0.0,0.0
12:56:48,614362.0,0.0,0.0
12:56:48,614273.0,0.0,0.0
12:56:48,614226.0,0.0,0.0
12:56:48,614106.0,0.0,0.0
12:56:48,614289.0,0.0,0.0
12:56:48,614221.0,0.0,0.0
12:56:48,614261.0,0.0,0.0
12:56:48,614318.0,0.0,0.0
12:56:48,614107.0,0.0,0.0
12:56:48,614161.0,0.0,0.0
12:56:48,614116.0,0.0,0.0
12:56:48,614214.0,0.0,0.0
12:56:48,614360.0,0.0,0.0
12:56:48,614285.0,0.0,0.0
12:56:48,614473.0,0.0,0.0
12:56:48,614399.0,0.0,0.0
12:56:48,614446.0,0.0,0.0
12:56:48,614573.0,0.0,0.0
12:56:48,614468.0,0.0,0.0
12:56:48,614605.0,0.0,0.0
12:56:48,614496.0,0.0,0.0
12:56:48,614524.0,0.0,0.0
12:56:48,614623.0,0.0,0.0
12:56:48,614489.0,0.0,0.0
12:56:48,614633.0,0.0,0.0
12:56:48,614567.0,0.0,0.0
12:56:48,614601.0,0.0,0.0
12:56:48,614648.0,0.0,0.0
12:56:48,614547.0,0.0,0.0
12:56:48,614688.0,0.0,0.0
12:56:48,614575.0,0.0,0.0
12:56:48,614620.0,0.0,0.0
12:56:48,614686.0,0.0,0.0
12:56:48,614604.0,0.0,0.0
12:56:48,614746.0,0.0,0.0
12:56:48,614663.0,0.0,0.0
12:56:48,614701.0,0.0,0.0
12:56:48,614791.0,0.0,0.0
12:56:48,614581.0,0.0,0.0
12:56:48,614720.0,0.0,0.0
12:56:48,614558.0,0.0,0.0
12:56:48,614556.0,0.0,0.0
12:56:48,614618.0,0.0,0.0
12:56:48,614399.0,0.0,0.0
12:56:48,614653.0,0.0,0.0
12:56:48,614532.0,0.0,0.0
12:56:48,614582.0,0.0,0.0
12:56:48,614701.0,0.0,0.0
12:56:48,614509.0,0.0,0.0
12:56:48,614757.0,0.0,0.0
12:56:49,614614.0,0.0,0.0
12:56:49,614610.0,0.0,0.0
12:56:49,614695.0,0.0,0.0
12:56:49,614480.0,0.0,0.0
12:56:49,614677.0,0.0,0.0
12:56:49,614446.0,0.0,0.0
12:56:49,614454.0,0.0,0.0
12:56:49,614577.0,0.0,0.0
12:56:49,614513.0,0.0,0.0
12:56:49,614928.0,0.0,0.0
12:56:49,614607.0,0.0,0.0
12:56:49,614377.0,0.0,0.0
12:56:49,614384.0,0.0,0.0
12:56:49,614188.0,0.0,0.0
12:56:49,614439.0,0.0,0.0
12:56:49,614234.0,0.0,0.0
12:56:49,614253.0,0.0,0.0
12:56:49,614352.0,0.0,0.0
12:56:49,614103.0,0.0,0.0
12:56:49,614298.0,0.0,0.0
12:56:49,614078.0,0.0,0.0
12:56:49,614108.0,0.0,0.0
12:56:49,614134.0,0.0,0.0
12:56:49,613924.0,0.0,0.0
12:56:49,614073.0,0.0,0.0
12:56:49,613863.0,0.0,0.0
12:56:49,613899.0,0.0,0.0
12:56:49,613939.0,0.0,0.0
12:56:49,613777.0,0.0,0.0
12:56:49,613951.0,0.0,0.0
12:56:49,613769.0,0.0,0.0
12:56:49,613826.0,0.0,0.0
12:56:49,613876.0,0.0,0.0
12:56:49,613738.0,0.0,0.0
12:56:49,613913.0,0.0,0.0
12:56:49,613732.0,0.0,0.0
12:56:49,613820.0,0.0,0.0
12:56:49,613903.0,0.0,0.0
12:56:49,613779.0,0.0,0.0
12:56:49,614007.0,0.0,0.0
12:56:49,613836.0,0.0,0.0
12:56:49,613950.0,0.0,0.0
12:56:49,614029.0,0.0,0.0
12:56:49,613871.0,0.0,0.0
12:56:49,614080.0,0.0,0.0
12:56:49,613912.0,0.0,0.0
12:56:49,614003.0,0.0,0.0
12:56:49,614047.0,0.0,0.0
12:56:49,613886.0,0.0,0.0
12:56:49,614118.0,0.0,0.0
12:56:49,613941.0,0.0,0.0
12:56:49,614012.0,0.0,0.0
12:56:49,614048.0,0.0,0.0
12:56:49,613898.0,0.0,0.0
12:56:49,614073.0,0.0,0.0
12:56:49,613927.0,0.0,0.0
12:56:49,613974.0,0.0,0.0
12:56:49,614031.0,0.0,0.0
12:56:49,613860.0,0.0,0.0
12:56:49,614058.0,0.0,0.0
12:56:49,613917.0,0.0,0.0
12:56:49,614031.0,0.0,0.0
12:56:49,614078.0,0.0,0.0
12:56:49,613928.0,0.0,0.0
12:56:49,614136.0,0.0,0.0
12:56:49,613978.0,0.0,0.0
12:56:49,614047.0,0.0,0.0
12:56:49,614080.0,0.0,0.0
12:56:49,613931.0,0.0,0.0
12:56:49,614157.0,0.0,0.0
12:56:49,613985.0,0.0,0.0
12:56:49,614059.0,0.0,0.0
12:56:49,614093.0,0.0,0.0
12:56:49,613904.0,0.0,0.0
12:56:49,614133.0,0.0,0.0
12:56:49,613976.0,0.0,0.0
12:56:49,614044.0,0.0,0.0
12:56:49,614101.0,0.0,0.0
12:56:49,613914.0,0.0,0.0
12:56:49,614146.0,0.0,0.0
12:56:49,613959.0,0.0,0.0
12:56:49,614059.0,0.0,0.0
12:56:49,614118.0,0.0,0.0
12:56:49,613979.0,0.0,0.0
12:56:49,614153.0,0.0,0.0
12:56:49,613960.0,0.0,0.0
12:56:49,614053.0,0.0,0.0
12:56:49,614116.0,0.0,0.0
12:56:49,613933.0,0.0,0.0
12:56:49,614131.0,0.0,0.0
12:56:49,613940.0,0.0,0.0
12:56:49,614009.0,0.0,0.0
12:56:49,614097.0,0.0,0.0
12:56:49,613968.0,0.0,0.0
12:56:49,614221.0,0.0,0.0
12:56:49,614087.0,0.0,0.0
12:56:49,614196.0,0.0,0.0
12:56:49,614275.0,0.0,0.0
12:56:49,614130.0,0.0,0.0
12:56:49,614275.0,0.0,0.0
12:56:49,614181.0,0.0,0.0
12:56:49,614326.0,0.0,0.0
12:56:49,614471.0,0.0,0.0
12:56:49,614491.0,0.0,0.0
12:56:49,614376.0,0.0,0.0
12:56:49,614094.0,0.0,0.0
12:56:49,614091.0,0.0,0.0
12:56:49,614127.0,0.0,0.0
12:56:49,614118.0,0.0,0.0
12:56:49,614223.0,0.0,0.0
12:56:49,614146.0,0.0,0.0
12:56:49,614175.0,0.0,0.0
12:56:49,614159.0,0.0,0.0
12:56:49,614096.0,0.0,0.0
12:56:49,614138.0,0.0,0.0
12:56:49,614038.0,0.0,0.0
12:56:49,614014.0,0.0,0.0
12:56:49,613966.0,0.0,0.0
12:56:49,613878.0,0.0,0.0
12:56:49,613879.0,0.0,0.0
12:56:49,613802.0,0.0,0.0
12:56:49,613721.0,0.0,0.0
12:56:49,613721.0,0.0,0.0
12:56:49,613639.0,0.0,0.0
12:56:49,613614.0,0.0,0.0
12:56:50,613583.0,0.0,0.0
12:56:50,613593.0,0.0,0.0
12:56:50,613557.0,0.0,0.0
12:56:50,613531.0,0.0,0.0
12:56:50,613603.0,0.0,0.0
12:56:50,613484.0,0.0,0.0
12:56:50,613608.0,0.0,0.0
12:56:50,613639.0,0.0,0.0
12:56:50,613611.0,0.0,0.0
12:56:50,613739.0,0.0,0.0
12:56:50,613636.0,0.0,0.0
12:56:50,613731.0,0.0,0.0
12:56:50,613770.0,0.0,0.0
12:56:50,613762.0,0.0,0.0
12:56:50,613908.0,0.0,0.0
12:56:50,613850.0,0.0,0.0
12:56:50,613991.0,0.0,0.0
12:56:50,614054.0,0.0,0.0
12:56:50,614002.0,0.0,0.0
12:56:50,614104.0,0.0,0.0
12:56:50,614026.0,0.0,0.0
12:56:50,614052.0,0.0,0.0
12:56:50,614019.0,0.0,0.0
12:56:50,613953.0,0.0,0.0
12:56:50,614096.0,0.0,0.0
12:56:50,613999.0,0.0,0.0
12:56:50,614093.0,0.0,0.0
12:56:50,614104.0,0.0,0.0
12:56:50,614077.0,0.0,0.0
12:56:50,614225.0,0.0,0.0
12:56:50,614204.0,0.0,0.0
12:56:50,614315.0,0.0,0.0
12:56:50,614358.0,0.0,0.0
12:56:50,614356.0,0.0,0.0
12:56:50,614451.0,0.0,0.0
12:56:50,614355.0,0.0,0.0
12:56:50,614455.0,0.0,0.0
12:56:50,614474.0,0.0,0.0
12:56:50,614448.0,0.0,0.0
12:56:50,614526.0,0.0,0.0
12:56:50,614449.0,0.0,0.0
12:56:50,614534.0,0.0,0.0
12:56:50,614568.0,0.0,0.0
12:56:50,614553.0,0.0,0.0
12:56:50,614649.0,0.0,0.0
12:56:50,614583.0,0.0,0.0
12:56:50,614674.0,0.0,0.0
12:56:50,614702.0,0.0,0.0
12:56:50,614682.0,0.0,0.0
12:56:50,614798.0,0.0,0.0
12:56:50,614685.0,0.0,0.0
12:56:50,614786.0,0.0,0.0
12:56:50,614868.0,0.0,0.0
12:56:50,614959.0,0.0,0.0
12:56:50,615279.0,0.0,0.0
12:56:50,615237.0,0.0,0.0
12:56:50,615110.0,0.0,0.0
12:56:50,614956.0,0.0,0.0
12:56:50,614916.0,0.0,0.0
12:56:50,615073.0,0.0,0.0
12:56:50,615033.0,0.0,0.0
12:56:50,615108.0,0.0,0.0
12:56:50,615114.0,0.0,0.0
12:56:50,615044.0,0.0,0.0
12:56:50,615118.0,0.0,0.0
12:56:50,614983.0,0.0,0.0
12:56:50,615023.0,0.0,0.0
12:56:50,614990.0,0.0,0.0
12:56:50,614926.0,0.0,0.0
12:56:50,615032.0,0.0,0.0
