TimeStramp,ECG,SpO2,Respiration
12:54:30,681783.0,0.0,0.0
12:54:30,681449.0,0.0,0.0
12:54:30,681309.0,0.0,0.0
12:54:30,681804.0,0.0,0.0
12:54:30,681153.0,0.0,0.0
12:54:30,681733.0,0.0,0.0
12:54:30,681431.0,0.0,0.0
12:54:30,681286.0,0.0,0.0
12:54:30,681741.0,0.0,0.0
12:54:30,681098.0,0.0,0.0
12:54:30,681676.0,0.0,0.0
12:54:30,681364.0,0.0,0.0
12:54:30,681264.0,0.0,0.0
12:54:30,681726.0,0.0,0.0
12:54:30,681065.0,0.0,0.0
12:54:30,681666.0,0.0,0.0
12:54:30,681316.0,0.0,0.0
12:54:30,681254.0,0.0,0.0
12:54:30,681746.0,0.0,0.0
12:54:30,681065.0,0.0,0.0
12:54:30,681649.0,0.0,0.0
12:54:30,681343.0,0.0,0.0
12:54:30,681245.0,0.0,0.0
12:54:30,681691.0,0.0,0.0
12:54:30,681046.0,0.0,0.0
12:54:30,681643.0,0.0,0.0
12:54:30,681302.0,0.0,0.0
12:54:30,681218.0,0.0,0.0
12:54:30,681688.0,0.0,0.0
12:54:30,681038.0,0.0,0.0
12:54:30,681649.0,0.0,0.0
12:54:30,681322.0,0.0,0.0
12:54:30,681258.0,0.0,0.0
12:54:30,681717.0,0.0,0.0
12:54:30,681079.0,0.0,0.0
12:54:30,681686.0,0.0,0.0
12:54:30,681361.0,0.0,0.0
12:54:30,681303.0,0.0,0.0
12:54:30,681744.0,0.0,0.0
12:54:30,681094.0,0.0,0.0
12:54:30,681728.0,0.0,0.0
12:54:30,681398.0,0.0,0.0
12:54:30,681351.0,0.0,0.0
12:54:30,681807.0,0.0,0.0
12:54:30,681163.0,0.0,0.0
12:54:30,681803.0,0.0,0.0
12:54:30,681463.0,0.0,0.0
12:54:30,681456.0,0.0,0.0
12:54:30,681901.0,0.0,0.0
12:54:30,681239.0,0.0,0.0
12:54:30,681879.0,0.0,0.0
12:54:30,681553.0,0.0,0.0
12:54:30,681516.0,0.0,0.0
12:54:30,681966.0,0.0,0.0
12:54:30,681344.0,0.0,0.0
12:54:30,681984.0,0.0,0.0
12:54:30,681592.0,0.0,0.0
12:54:30,681544.0,0.0,0.0
12:54:30,681968.0,0.0,0.0
12:54:30,681395.0,0.0,0.0
12:54:30,682183.0,0.0,0.0
12:54:30,681925.0,0.0,0.0
12:54:30,681966.0,0.0,0.0
12:54:30,682244.0,0.0,0.0
12:54:30,681463.0,0.0,0.0
12:54:30,682033.0,0.0,0.0
12:54:30,681678.0,0.0,0.0
12:54:30,681681.0,0.0,0.0
12:54:30,682164.0,0.0,0.0
12:54:30,681545.0,0.0,0.0
12:54:30,682166.0,0.0,0.0
12:54:30,681773.0,0.0,0.0
12:54:30,681770.0,0.0,0.0
12:54:30,682182.0,0.0,0.0
12:54:30,681551.0,0.0,0.0
12:54:30,682171.0,0.0,0.0
12:54:30,681750.0,0.0,0.0
12:54:30,681746.0,0.0,0.0
12:54:30,682110.0,0.0,0.0
12:54:30,681465.0,0.0,0.0
12:54:30,682127.0,0.0,0.0
12:54:30,681713.0,0.0,0.0
12:54:30,681698.0,0.0,0.0
12:54:30,682092.0,0.0,0.0
12:54:30,681459.0,0.0,0.0
12:54:30,682106.0,0.0,0.0
12:54:30,681723.0,0.0,0.0
12:54:30,681745.0,0.0,0.0
12:54:30,682104.0,0.0,0.0
12:54:30,681474.0,0.0,0.0
12:54:30,682179.0,0.0,0.0
12:54:30,681773.0,0.0,0.0
12:54:30,681807.0,0.0,0.0
12:54:30,682195.0,0.0,0.0
12:54:30,681589.0,0.0,0.0
12:54:30,682238.0,0.0,0.0
12:54:30,681820.0,0.0,0.0
12:54:30,681879.0,0.0,0.0
12:54:30,682234.0,0.0,0.0
12:54:30,681635.0,0.0,0.0
12:54:30,682300.0,0.0,0.0
12:54:30,681842.0,0.0,0.0
12:54:30,681888.0,0.0,0.0
12:54:30,682219.0,0.0,0.0
12:54:30,681624.0,0.0,0.0
12:54:30,682279.0,0.0,0.0
12:54:30,681883.0,0.0,0.0
12:54:30,681916.0,0.0,0.0
12:54:30,682230.0,0.0,0.0
12:54:30,681621.0,0.0,0.0
12:54:30,682276.0,0.0,0.0
12:54:30,681831.0,0.0,0.0
12:54:30,681928.0,0.0,0.0
12:54:30,682278.0,0.0,0.0
12:54:30,681671.0,0.0,0.0
12:54:30,682339.0,0.0,0.0
12:54:30,681899.0,0.0,0.0
12:54:30,681976.0,0.0,0.0
12:54:30,682311.0,0.0,0.0
12:54:30,681721.0,0.0,0.0
12:54:30,682374.0,0.0,0.0
12:54:30,681918.0,0.0,0.0
12:54:30,682026.0,0.0,0.0
12:54:30,682358.0,0.0,0.0
12:54:31,681751.0,0.0,0.0
12:54:31,682425.0,0.0,0.0
12:54:31,681947.0,0.0,0.0
12:54:31,682083.0,0.0,0.0
12:54:31,682399.0,0.0,0.0
12:54:31,681811.0,0.0,0.0
12:54:31,682486.0,0.0,0.0
12:54:31,682003.0,0.0,0.0
12:54:31,682124.0,0.0,0.0
12:54:31,682406.0,0.0,0.0
12:54:31,681796.0,0.0,0.0
12:54:31,682461.0,0.0,0.0
12:54:31,682024.0,0.0,0.0
12:54:31,682178.0,0.0,0.0
12:54:31,682466.0,0.0,0.0
12:54:31,681856.0,0.0,0.0
12:54:31,682526.0,0.0,0.0
12:54:31,682069.0,0.0,0.0
12:54:31,682172.0,0.0,0.0
12:54:31,682449.0,0.0,0.0
12:54:31,681848.0,0.0,0.0
12:54:31,682501.0,0.0,0.0
12:54:31,682049.0,0.0,0.0
12:54:31,682166.0,0.0,0.0
12:54:31,682481.0,0.0,0.0
12:54:31,681906.0,0.0,0.0
12:54:31,682554.0,0.0,0.0
12:54:31,682087.0,0.0,0.0
12:54:31,682226.0,0.0,0.0
12:54:31,682441.0,0.0,0.0
12:54:31,681854.0,0.0,0.0
12:54:31,682522.0,0.0,0.0
12:54:31,681980.0,0.0,0.0
12:54:31,682108.0,0.0,0.0
12:54:31,682353.0,0.0,0.0
12:54:31,681876.0,0.0,0.0
12:54:31,682664.0,0.0,0.0
12:54:31,682229.0,0.0,0.0
12:54:31,682419.0,0.0,0.0
12:54:31,682564.0,0.0,0.0
12:54:31,681868.0,0.0,0.0
12:54:31,682461.0,0.0,0.0
12:54:31,681962.0,0.0,0.0
12:54:31,682155.0,0.0,0.0
12:54:31,682426.0,0.0,0.0
12:54:31,681868.0,0.0,0.0
12:54:31,682493.0,0.0,0.0
12:54:31,681960.0,0.0,0.0
12:54:31,682147.0,0.0,0.0
12:54:31,682332.0,0.0,0.0
12:54:31,681756.0,0.0,0.0
12:54:31,682395.0,0.0,0.0
12:54:31,681840.0,0.0,0.0
12:54:31,682011.0,0.0,0.0
12:54:31,682218.0,0.0,0.0
12:54:31,681674.0,0.0,0.0
12:54:31,682359.0,0.0,0.0
12:54:31,681820.0,0.0,0.0
12:54:31,681967.0,0.0,0.0
12:54:31,682163.0,0.0,0.0
12:54:31,681629.0,0.0,0.0
12:54:31,682319.0,0.0,0.0
12:54:31,681766.0,0.0,0.0
12:54:31,681958.0,0.0,0.0
12:54:31,682170.0,0.0,0.0
12:54:31,681634.0,0.0,0.0
12:54:31,682294.0,0.0,0.0
12:54:31,681764.0,0.0,0.0
12:54:31,681976.0,0.0,0.0
12:54:31,682194.0,0.0,0.0
12:54:31,681676.0,0.0,0.0
12:54:31,682315.0,0.0,0.0
12:54:31,681786.0,0.0,0.0
12:54:31,682041.0,0.0,0.0
12:54:31,682256.0,0.0,0.0
12:54:31,681726.0,0.0,0.0
12:54:31,682407.0,0.0,0.0
12:54:31,681804.0,0.0,0.0
12:54:31,682009.0,0.0,0.0
12:54:31,682218.0,0.0,0.0
12:54:31,681682.0,0.0,0.0
12:54:31,682356.0,0.0,0.0
12:54:31,681793.0,0.0,0.0
12:54:31,682022.0,0.0,0.0
12:54:31,682158.0,0.0,0.0
12:54:31,681634.0,0.0,0.0
12:54:31,682295.0,0.0,0.0
12:54:31,681739.0,0.0,0.0
12:54:31,681988.0,0.0,0.0
12:54:31,682150.0,0.0,0.0
12:54:31,681626.0,0.0,0.0
12:54:31,682281.0,0.0,0.0
12:54:31,681729.0,0.0,0.0
12:54:31,681983.0,0.0,0.0
12:54:31,682133.0,0.0,0.0
12:54:31,681644.0,0.0,0.0
12:54:31,682311.0,0.0,0.0
12:54:31,681722.0,0.0,0.0
12:54:31,681991.0,0.0,0.0
12:54:31,682141.0,0.0,0.0
12:54:31,681640.0,0.0,0.0
12:54:31,682294.0,0.0,0.0
12:54:31,681759.0,0.0,0.0
12:54:31,682038.0,0.0,0.0
12:54:31,682148.0,0.0,0.0
12:54:31,681671.0,0.0,0.0
12:54:31,682354.0,0.0,0.0
12:54:31,681769.0,0.0,0.0
12:54:31,682046.0,0.0,0.0
12:54:31,682194.0,0.0,0.0
12:54:31,681678.0,0.0,0.0
12:54:31,682324.0,0.0,0.0
12:54:31,681734.0,0.0,0.0
12:54:31,682018.0,0.0,0.0
12:54:31,682163.0,0.0,0.0
12:54:31,681657.0,0.0,0.0
12:54:31,682328.0,0.0,0.0
12:54:31,681758.0,0.0,0.0
12:54:31,682029.0,0.0,0.0
12:54:31,682170.0,0.0,0.0
12:54:31,681669.0,0.0,0.0
12:54:31,682323.0,0.0,0.0
12:54:31,681733.0,0.0,0.0
12:54:31,681998.0,0.0,0.0
12:54:31,682101.0,0.0,0.0
12:54:32,681663.0,0.0,0.0
12:54:32,682323.0,0.0,0.0
12:54:32,681712.0,0.0,0.0
12:54:32,681980.0,0.0,0.0
12:54:32,682029.0,0.0,0.0
12:54:32,681528.0,0.0,0.0
12:54:32,682161.0,0.0,0.0
12:54:32,681633.0,0.0,0.0
12:54:32,682093.0,0.0,0.0
12:54:32,682270.0,0.0,0.0
12:54:32,681796.0,0.0,0.0
12:54:32,682307.0,0.0,0.0
12:54:32,681586.0,0.0,0.0
12:54:32,681834.0,0.0,0.0
12:54:32,681909.0,0.0,0.0
12:54:32,681441.0,0.0,0.0
12:54:32,682123.0,0.0,0.0
12:54:32,681471.0,0.0,0.0
12:54:32,681793.0,0.0,0.0
12:54:32,681864.0,0.0,0.0
12:54:32,681374.0,0.0,0.0
12:54:32,682042.0,0.0,0.0
12:54:32,681380.0,0.0,0.0
12:54:32,681658.0,0.0,0.0
12:54:32,681699.0,0.0,0.0
12:54:32,681232.0,0.0,0.0
12:54:32,681866.0,0.0,0.0
12:54:32,681271.0,0.0,0.0
12:54:32,681580.0,0.0,0.0
12:54:32,681622.0,0.0,0.0
12:54:32,681151.0,0.0,0.0
12:54:32,681818.0,0.0,0.0
12:54:32,681188.0,0.0,0.0
12:54:32,681516.0,0.0,0.0
12:54:32,681569.0,0.0,0.0
12:54:32,681125.0,0.0,0.0
12:54:32,681773.0,0.0,0.0
12:54:32,681114.0,0.0,0.0
12:54:32,681451.0,0.0,0.0
12:54:32,681546.0,0.0,0.0
12:54:32,681120.0,0.0,0.0
12:54:32,681768.0,0.0,0.0
12:54:32,681158.0,0.0,0.0
12:54:32,681543.0,0.0,0.0
12:54:32,681558.0,0.0,0.0
12:54:32,681116.0,0.0,0.0
12:54:32,681770.0,0.0,0.0
12:54:32,681126.0,0.0,0.0
12:54:32,681509.0,0.0,0.0
12:54:32,681525.0,0.0,0.0
12:54:32,681095.0,0.0,0.0
12:54:32,681778.0,0.0,0.0
12:54:32,681117.0,0.0,0.0
12:54:32,681460.0,0.0,0.0
12:54:32,681456.0,0.0,0.0
12:54:32,681043.0,0.0,0.0
12:54:32,681701.0,0.0,0.0
12:54:32,681024.0,0.0,0.0
12:54:32,681408.0,0.0,0.0
12:54:32,681412.0,0.0,0.0
12:54:32,680982.0,0.0,0.0
12:54:32,681626.0,0.0,0.0
12:54:32,680966.0,0.0,0.0
12:54:32,681351.0,0.0,0.0
12:54:32,681336.0,0.0,0.0
12:54:32,680969.0,0.0,0.0
12:54:32,681610.0,0.0,0.0
12:54:32,680943.0,0.0,0.0
12:54:32,681353.0,0.0,0.0
12:54:32,681343.0,0.0,0.0
12:54:32,680937.0,0.0,0.0
12:54:32,681583.0,0.0,0.0
12:54:32,680931.0,0.0,0.0
12:54:32,681330.0,0.0,0.0
12:54:32,681301.0,0.0,0.0
12:54:32,680900.0,0.0,0.0
12:54:32,681521.0,0.0,0.0
12:54:32,680856.0,0.0,0.0
12:54:32,681308.0,0.0,0.0
12:54:32,681262.0,0.0,0.0
12:54:32,680868.0,0.0,0.0
12:54:32,681532.0,0.0,0.0
12:54:32,680874.0,0.0,0.0
12:54:32,681269.0,0.0,0.0
12:54:32,681196.0,0.0,0.0
12:54:32,680844.0,0.0,0.0
12:54:32,681470.0,0.0,0.0
12:54:32,680805.0,0.0,0.0
12:54:32,681238.0,0.0,0.0
12:54:32,681174.0,0.0,0.0
12:54:32,680817.0,0.0,0.0
12:54:32,681413.0,0.0,0.0
12:54:32,680758.0,0.0,0.0
12:54:32,681189.0,0.0,0.0
12:54:32,681120.0,0.0,0.0
12:54:32,680761.0,0.0,0.0
12:54:32,681368.0,0.0,0.0
12:54:32,680723.0,0.0,0.0
12:54:32,681157.0,0.0,0.0
12:54:32,681106.0,0.0,0.0
12:54:32,680749.0,0.0,0.0
12:54:32,681338.0,0.0,0.0
12:54:32,680656.0,0.0,0.0
12:54:32,681047.0,0.0,0.0
12:54:32,680964.0,0.0,0.0
12:54:32,680709.0,0.0,0.0
12:54:32,681477.0,0.0,0.0
12:54:32,680891.0,0.0,0.0
12:54:32,681306.0,0.0,0.0
12:54:32,681051.0,0.0,0.0
12:54:32,680619.0,0.0,0.0
12:54:32,681167.0,0.0,0.0
12:54:32,680490.0,0.0,0.0
12:54:32,680996.0,0.0,0.0
12:54:32,680933.0,0.0,0.0
12:54:32,680590.0,0.0,0.0
12:54:32,681134.0,0.0,0.0
12:54:32,680486.0,0.0,0.0
12:54:32,680954.0,0.0,0.0
12:54:32,680820.0,0.0,0.0
12:54:32,680506.0,0.0,0.0
12:54:32,681079.0,0.0,0.0
12:54:32,680368.0,0.0,0.0
12:54:32,680828.0,0.0,0.0
12:54:32,680684.0,0.0,0.0
12:54:33,680379.0,0.0,0.0
12:54:33,680960.0,0.0,0.0
12:54:33,680234.0,0.0,0.0
12:54:33,680718.0,0.0,0.0
12:54:33,680589.0,0.0,0.0
12:54:33,680310.0,0.0,0.0
12:54:33,680890.0,0.0,0.0
12:54:33,680183.0,0.0,0.0
12:54:33,680651.0,0.0,0.0
12:54:33,680506.0,0.0,0.0
12:54:33,680234.0,0.0,0.0
12:54:33,680820.0,0.0,0.0
12:54:33,680144.0,0.0,0.0
12:54:33,680638.0,0.0,0.0
12:54:33,680534.0,0.0,0.0
12:54:33,680268.0,0.0,0.0
12:54:33,680828.0,0.0,0.0
12:54:33,680176.0,0.0,0.0
12:54:33,680678.0,0.0,0.0
12:54:33,680528.0,0.0,0.0
12:54:33,680249.0,0.0,0.0
12:54:33,680857.0,0.0,0.0
12:54:33,680179.0,0.0,0.0
12:54:33,680683.0,0.0,0.0
12:54:33,680530.0,0.0,0.0
12:54:33,680236.0,0.0,0.0
12:54:33,680783.0,0.0,0.0
12:54:33,680123.0,0.0,0.0
12:54:33,680655.0,0.0,0.0
12:54:33,680491.0,0.0,0.0
12:54:33,680205.0,0.0,0.0
12:54:33,680764.0,0.0,0.0
12:54:33,680083.0,0.0,0.0
12:54:33,680593.0,0.0,0.0
12:54:33,680440.0,0.0,0.0
12:54:33,680175.0,0.0,0.0
12:54:33,680754.0,0.0,0.0
12:54:33,680094.0,0.0,0.0
12:54:33,680630.0,0.0,0.0
12:54:33,680423.0,0.0,0.0
12:54:33,680154.0,0.0,0.0
12:54:33,680697.0,0.0,0.0
12:54:33,680068.0,0.0,0.0
12:54:33,680584.0,0.0,0.0
12:54:33,680385.0,0.0,0.0
12:54:33,680143.0,0.0,0.0
12:54:33,680683.0,0.0,0.0
12:54:33,680026.0,0.0,0.0
12:54:33,680585.0,0.0,0.0
12:54:33,680376.0,0.0,0.0
12:54:33,680144.0,0.0,0.0
12:54:33,680721.0,0.0,0.0
12:54:33,680008.0,0.0,0.0
12:54:33,680532.0,0.0,0.0
12:54:33,680331.0,0.0,0.0
12:54:33,680119.0,0.0,0.0
12:54:33,680663.0,0.0,0.0
12:54:33,680000.0,0.0,0.0
12:54:33,680546.0,0.0,0.0
12:54:33,680331.0,0.0,0.0
12:54:33,680108.0,0.0,0.0
12:54:33,680653.0,0.0,0.0
12:54:33,679931.0,0.0,0.0
12:54:33,680529.0,0.0,0.0
12:54:33,680311.0,0.0,0.0
12:54:33,680064.0,0.0,0.0
12:54:33,680606.0,0.0,0.0
12:54:33,679916.0,0.0,0.0
12:54:33,680438.0,0.0,0.0
12:54:33,680216.0,0.0,0.0
12:54:33,680024.0,0.0,0.0
12:54:33,680564.0,0.0,0.0
12:54:33,679921.0,0.0,0.0
12:54:33,680472.0,0.0,0.0
12:54:33,680246.0,0.0,0.0
12:54:33,680037.0,0.0,0.0
12:54:33,680585.0,0.0,0.0
12:54:33,679893.0,0.0,0.0
12:54:33,680446.0,0.0,0.0
12:54:33,680144.0,0.0,0.0
12:54:33,679946.0,0.0,0.0
12:54:33,680509.0,0.0,0.0
12:54:33,679958.0,0.0,0.0
12:54:33,680673.0,0.0,0.0
12:54:33,680459.0,0.0,0.0
12:54:33,680184.0,0.0,0.0
12:54:33,680523.0,0.0,0.0
12:54:33,679781.0,0.0,0.0
12:54:33,680343.0,0.0,0.0
12:54:33,680110.0,0.0,0.0
12:54:33,679977.0,0.0,0.0
12:54:33,680483.0,0.0,0.0
12:54:33,679796.0,0.0,0.0
12:54:33,680383.0,0.0,0.0
12:54:33,680099.0,0.0,0.0
12:54:33,679947.0,0.0,0.0
12:54:33,680451.0,0.0,0.0
12:54:33,679736.0,0.0,0.0
12:54:33,680304.0,0.0,0.0
12:54:33,680006.0,0.0,0.0
12:54:33,679835.0,0.0,0.0
12:54:33,680325.0,0.0,0.0
12:54:33,679603.0,0.0,0.0
12:54:33,680191.0,0.0,0.0
12:54:33,679923.0,0.0,0.0
12:54:33,679778.0,0.0,0.0
12:54:33,680248.0,0.0,0.0
12:54:33,679548.0,0.0,0.0
12:54:33,680149.0,0.0,0.0
12:54:33,679821.0,0.0,0.0
12:54:33,679698.0,0.0,0.0
12:54:33,680176.0,0.0,0.0
12:54:33,679502.0,0.0,0.0
12:54:33,680101.0,0.0,0.0
12:54:33,679819.0,0.0,0.0
12:54:33,679703.0,0.0,0.0
12:54:33,680180.0,0.0,0.0
12:54:33,679511.0,0.0,0.0
12:54:33,680116.0,0.0,0.0
12:54:33,679785.0,0.0,0.0
12:54:33,679702.0,0.0,0.0
12:54:33,680165.0,0.0,0.0
12:54:33,679493.0,0.0,0.0
12:54:33,680111.0,0.0,0.0
12:54:33,679776.0,0.0,0.0
12:54:33,679670.0,0.0,0.0
12:54:34,680130.0,0.0,0.0
12:54:34,679451.0,0.0,0.0
12:54:34,680049.0,0.0,0.0
12:54:34,679708.0,0.0,0.0
12:54:34,679582.0,0.0,0.0
12:54:34,680049.0,0.0,0.0
12:54:34,679379.0,0.0,0.0
12:54:34,679975.0,0.0,0.0
12:54:34,679646.0,0.0,0.0
12:54:34,679543.0,0.0,0.0
12:54:34,680013.0,0.0,0.0
12:54:34,679327.0,0.0,0.0
12:54:34,679919.0,0.0,0.0
12:54:34,679579.0,0.0,0.0
12:54:34,679461.0,0.0,0.0
12:54:34,679928.0,0.0,0.0
12:54:34,679256.0,0.0,0.0
12:54:34,679861.0,0.0,0.0
12:54:34,679503.0,0.0,0.0
12:54:34,679424.0,0.0,0.0
12:54:34,679856.0,0.0,0.0
12:54:34,679203.0,0.0,0.0
12:54:34,679797.0,0.0,0.0
12:54:34,679420.0,0.0,0.0
12:54:34,679373.0,0.0,0.0
12:54:34,679789.0,0.0,0.0
12:54:34,679159.0,0.0,0.0
12:54:34,679782.0,0.0,0.0
12:54:34,679385.0,0.0,0.0
12:54:34,679354.0,0.0,0.0
12:54:34,679795.0,0.0,0.0
12:54:34,679148.0,0.0,0.0
12:54:34,679771.0,0.0,0.0
12:54:34,679379.0,0.0,0.0
12:54:34,679363.0,0.0,0.0
12:54:34,679775.0,0.0,0.0
12:54:34,679121.0,0.0,0.0
12:54:34,679737.0,0.0,0.0
12:54:34,679328.0,0.0,0.0
12:54:34,679293.0,0.0,0.0
12:54:34,679648.0,0.0,0.0
12:54:34,678997.0,0.0,0.0
12:54:34,679628.0,0.0,0.0
12:54:34,679266.0,0.0,0.0
12:54:34,679262.0,0.0,0.0
12:54:34,679630.0,0.0,0.0
12:54:34,679011.0,0.0,0.0
12:54:34,679646.0,0.0,0.0
12:54:34,679323.0,0.0,0.0
12:54:34,679243.0,0.0,0.0
12:54:34,679634.0,0.0,0.0
12:54:34,679048.0,0.0,0.0
12:54:34,679654.0,0.0,0.0
12:54:34,679232.0,0.0,0.0
12:54:34,679190.0,0.0,0.0
12:54:34,679601.0,0.0,0.0
12:54:34,679164.0,0.0,0.0
12:54:34,679904.0,0.0,0.0
12:54:34,679603.0,0.0,0.0
12:54:34,679464.0,0.0,0.0
12:54:34,679631.0,0.0,0.0
12:54:34,678956.0,0.0,0.0
12:54:34,679549.0,0.0,0.0
12:54:34,679243.0,0.0,0.0
12:54:34,679277.0,0.0,0.0
12:54:34,679628.0,0.0,0.0
12:54:34,679036.0,0.0,0.0
12:54:34,679632.0,0.0,0.0
12:54:34,679238.0,0.0,0.0
12:54:34,679260.0,0.0,0.0
12:54:34,679608.0,0.0,0.0
12:54:34,678973.0,0.0,0.0
12:54:34,679564.0,0.0,0.0
12:54:34,679139.0,0.0,0.0
12:54:34,679179.0,0.0,0.0
12:54:34,679522.0,0.0,0.0
12:54:34,678900.0,0.0,0.0
12:54:34,679508.0,0.0,0.0
12:54:34,679044.0,0.0,0.0
12:54:34,679053.0,0.0,0.0
12:54:34,679432.0,0.0,0.0
12:54:34,678847.0,0.0,0.0
12:54:34,679429.0,0.0,0.0
12:54:34,678988.0,0.0,0.0
12:54:34,679067.0,0.0,0.0
12:54:34,679405.0,0.0,0.0
12:54:34,678787.0,0.0,0.0
12:54:34,679426.0,0.0,0.0
12:54:34,679031.0,0.0,0.0
12:54:34,679113.0,0.0,0.0
12:54:34,679428.0,0.0,0.0
12:54:34,678833.0,0.0,0.0
12:54:34,679474.0,0.0,0.0
12:54:34,679052.0,0.0,0.0
12:54:34,679100.0,0.0,0.0
12:54:34,679431.0,0.0,0.0
12:54:34,678843.0,0.0,0.0
12:54:34,679479.0,0.0,0.0
12:54:34,679049.0,0.0,0.0
12:54:34,679075.0,0.0,0.0
12:54:34,679409.0,0.0,0.0
12:54:34,678799.0,0.0,0.0
12:54:34,679416.0,0.0,0.0
12:54:34,678971.0,0.0,0.0
12:54:34,679073.0,0.0,0.0
12:54:34,679357.0,0.0,0.0
12:54:34,678733.0,0.0,0.0
12:54:34,679371.0,0.0,0.0
12:54:34,678925.0,0.0,0.0
12:54:34,678989.0,0.0,0.0
12:54:34,679294.0,0.0,0.0
12:54:34,678721.0,0.0,0.0
12:54:34,679376.0,0.0,0.0
12:54:34,678912.0,0.0,0.0
12:54:34,678978.0,0.0,0.0
12:54:34,679294.0,0.0,0.0
12:54:34,678710.0,0.0,0.0
12:54:34,679341.0,0.0,0.0
12:54:34,678862.0,0.0,0.0
12:54:34,678969.0,0.0,0.0
12:54:34,679259.0,0.0,0.0
12:54:34,678690.0,0.0,0.0
12:54:34,679344.0,0.0,0.0
12:54:34,678844.0,0.0,0.0
12:54:35,678956.0,0.0,0.0
12:54:35,679263.0,0.0,0.0
12:54:35,678670.0,0.0,0.0
12:54:35,679314.0,0.0,0.0
12:54:35,678814.0,0.0,0.0
12:54:35,678969.0,0.0,0.0
12:54:35,679232.0,0.0,0.0
12:54:35,678649.0,0.0,0.0
12:54:35,679299.0,0.0,0.0
12:54:35,678807.0,0.0,0.0
12:54:35,678969.0,0.0,0.0
12:54:35,679219.0,0.0,0.0
12:54:35,678635.0,0.0,0.0
12:54:35,679319.0,0.0,0.0
12:54:35,678839.0,0.0,0.0
12:54:35,678971.0,0.0,0.0
12:54:35,679224.0,0.0,0.0
12:54:35,678661.0,0.0,0.0
12:54:35,679359.0,0.0,0.0
12:54:35,678868.0,0.0,0.0
12:54:35,679011.0,0.0,0.0
12:54:35,679268.0,0.0,0.0
12:54:35,678698.0,0.0,0.0
12:54:35,679394.0,0.0,0.0
12:54:35,678888.0,0.0,0.0
12:54:35,679037.0,0.0,0.0
12:54:35,679306.0,0.0,0.0
12:54:35,678748.0,0.0,0.0
12:54:35,679368.0,0.0,0.0
12:54:35,678824.0,0.0,0.0
12:54:35,678988.0,0.0,0.0
12:54:35,679278.0,0.0,0.0
12:54:35,678857.0,0.0,0.0
12:54:35,679696.0,0.0,0.0
12:54:35,679222.0,0.0,0.0
12:54:35,679224.0,0.0,0.0
12:54:35,679318.0,0.0,0.0
12:54:35,678744.0,0.0,0.0
12:54:35,679429.0,0.0,0.0
12:54:35,678926.0,0.0,0.0
12:54:35,679164.0,0.0,0.0
12:54:35,679391.0,0.0,0.0
12:54:35,678861.0,0.0,0.0
12:54:35,679545.0,0.0,0.0
12:54:35,678988.0,0.0,0.0
12:54:35,679176.0,0.0,0.0
12:54:35,679380.0,0.0,0.0
12:54:35,678848.0,0.0,0.0
12:54:35,679504.0,0.0,0.0
12:54:35,678932.0,0.0,0.0
12:54:35,679146.0,0.0,0.0
12:54:35,679321.0,0.0,0.0
12:54:35,678826.0,0.0,0.0
12:54:35,679471.0,0.0,0.0
12:54:35,678915.0,0.0,0.0
12:54:35,679141.0,0.0,0.0
12:54:35,679327.0,0.0,0.0
12:54:35,678806.0,0.0,0.0
12:54:35,679488.0,0.0,0.0
12:54:35,678943.0,0.0,0.0
12:54:35,679168.0,0.0,0.0
12:54:35,679371.0,0.0,0.0
12:54:35,678870.0,0.0,0.0
12:54:35,679529.0,0.0,0.0
12:54:35,678958.0,0.0,0.0
12:54:35,679204.0,0.0,0.0
12:54:35,679394.0,0.0,0.0
12:54:35,678923.0,0.0,0.0
12:54:35,679596.0,0.0,0.0
12:54:35,679052.0,0.0,0.0
12:54:35,679285.0,0.0,0.0
12:54:35,679432.0,0.0,0.0
12:54:35,678966.0,0.0,0.0
12:54:35,679669.0,0.0,0.0
12:54:35,679061.0,0.0,0.0
12:54:35,679314.0,0.0,0.0
12:54:35,679453.0,0.0,0.0
12:54:35,678946.0,0.0,0.0
12:54:35,679639.0,0.0,0.0
12:54:35,679093.0,0.0,0.0
12:54:35,679331.0,0.0,0.0
12:54:35,679465.0,0.0,0.0
12:54:35,678966.0,0.0,0.0
12:54:35,679638.0,0.0,0.0
12:54:35,679048.0,0.0,0.0
12:54:35,679351.0,0.0,0.0
12:54:35,679483.0,0.0,0.0
12:54:35,678999.0,0.0,0.0
12:54:35,679686.0,0.0,0.0
12:54:35,679134.0,0.0,0.0
12:54:35,679428.0,0.0,0.0
12:54:35,679562.0,0.0,0.0
12:54:35,679097.0,0.0,0.0
12:54:35,679748.0,0.0,0.0
12:54:35,679146.0,0.0,0.0
12:54:35,679470.0,0.0,0.0
12:54:35,679593.0,0.0,0.0
12:54:35,679112.0,0.0,0.0
12:54:35,679777.0,0.0,0.0
12:54:35,679182.0,0.0,0.0
12:54:35,679491.0,0.0,0.0
12:54:35,679595.0,0.0,0.0
12:54:35,679148.0,0.0,0.0
12:54:35,679822.0,0.0,0.0
12:54:35,679241.0,0.0,0.0
12:54:35,679545.0,0.0,0.0
12:54:35,679639.0,0.0,0.0
12:54:35,679199.0,0.0,0.0
12:54:35,679850.0,0.0,0.0
12:54:35,679250.0,0.0,0.0
12:54:35,679575.0,0.0,0.0
12:54:35,679648.0,0.0,0.0
12:54:35,679190.0,0.0,0.0
12:54:35,679877.0,0.0,0.0
12:54:35,679292.0,0.0,0.0
12:54:35,679606.0,0.0,0.0
12:54:35,679683.0,0.0,0.0
12:54:35,679254.0,0.0,0.0
12:54:35,679924.0,0.0,0.0
12:54:35,679297.0,0.0,0.0
12:54:35,679673.0,0.0,0.0
12:54:35,679713.0,0.0,0.0
12:54:35,679284.0,0.0,0.0
12:54:35,679933.0,0.0,0.0
12:54:35,679304.0,0.0,0.0
12:54:36,679604.0,0.0,0.0
12:54:36,679639.0,0.0,0.0
12:54:36,679250.0,0.0,0.0
12:54:36,680044.0,0.0,0.0
12:54:36,679530.0,0.0,0.0
12:54:36,679987.0,0.0,0.0
12:54:36,679912.0,0.0,0.0
12:54:36,679356.0,0.0,0.0
12:54:36,679931.0,0.0,0.0
12:54:36,679296.0,0.0,0.0
12:54:36,679720.0,0.0,0.0
12:54:36,679763.0,0.0,0.0
12:54:36,679347.0,0.0,0.0
12:54:36,679978.0,0.0,0.0
12:54:36,679353.0,0.0,0.0
12:54:36,679741.0,0.0,0.0
12:54:36,679747.0,0.0,0.0
12:54:36,679285.0,0.0,0.0
12:54:36,679916.0,0.0,0.0
12:54:36,679244.0,0.0,0.0
12:54:36,679609.0,0.0,0.0
12:54:36,679641.0,0.0,0.0
12:54:36,679249.0,0.0,0.0
12:54:36,679893.0,0.0,0.0
12:54:36,679234.0,0.0,0.0
12:54:36,679631.0,0.0,0.0
12:54:36,679633.0,0.0,0.0
12:54:36,679208.0,0.0,0.0
12:54:36,679851.0,0.0,0.0
12:54:36,679241.0,0.0,0.0
12:54:36,679652.0,0.0,0.0
12:54:36,679647.0,0.0,0.0
12:54:36,679263.0,0.0,0.0
12:54:36,679913.0,0.0,0.0
12:54:36,679261.0,0.0,0.0
12:54:36,679718.0,0.0,0.0
12:54:36,679698.0,0.0,0.0
12:54:36,679309.0,0.0,0.0
12:54:36,679949.0,0.0,0.0
12:54:36,679310.0,0.0,0.0
12:54:36,679741.0,0.0,0.0
12:54:36,679711.0,0.0,0.0
12:54:36,679353.0,0.0,0.0
12:54:36,680018.0,0.0,0.0
12:54:36,679333.0,0.0,0.0
12:54:36,679733.0,0.0,0.0
12:54:36,679718.0,0.0,0.0
12:54:36,679339.0,0.0,0.0
12:54:36,679957.0,0.0,0.0
12:54:36,679281.0,0.0,0.0
12:54:36,679718.0,0.0,0.0
12:54:36,679668.0,0.0,0.0
12:54:36,679304.0,0.0,0.0
12:54:36,679948.0,0.0,0.0
12:54:36,679283.0,0.0,0.0
12:54:36,679729.0,0.0,0.0
12:54:36,679671.0,0.0,0.0
12:54:36,679338.0,0.0,0.0
12:54:36,679979.0,0.0,0.0
12:54:36,679313.0,0.0,0.0
12:54:36,679753.0,0.0,0.0
12:54:36,679703.0,0.0,0.0
12:54:36,679330.0,0.0,0.0
12:54:36,679934.0,0.0,0.0
12:54:36,679288.0,0.0,0.0
12:54:36,679720.0,0.0,0.0
12:54:36,679673.0,0.0,0.0
12:54:36,679343.0,0.0,0.0
12:54:36,679982.0,0.0,0.0
12:54:36,679301.0,0.0,0.0
12:54:36,679784.0,0.0,0.0
12:54:36,679699.0,0.0,0.0
12:54:36,679377.0,0.0,0.0
12:54:36,680008.0,0.0,0.0
12:54:36,679349.0,0.0,0.0
12:54:36,679803.0,0.0,0.0
12:54:36,679708.0,0.0,0.0
12:54:36,679378.0,0.0,0.0
12:54:36,679995.0,0.0,0.0
12:54:36,679333.0,0.0,0.0
12:54:36,679813.0,0.0,0.0
12:54:36,679696.0,0.0,0.0
12:54:36,679373.0,0.0,0.0
12:54:36,679998.0,0.0,0.0
12:54:36,679336.0,0.0,0.0
12:54:36,679834.0,0.0,0.0
12:54:36,679719.0,0.0,0.0
12:54:36,679418.0,0.0,0.0
12:54:36,680035.0,0.0,0.0
12:54:36,679323.0,0.0,0.0
12:54:36,679787.0,0.0,0.0
12:54:36,679609.0,0.0,0.0
12:54:36,679310.0,0.0,0.0
12:54:36,679961.0,0.0,0.0
12:54:36,679394.0,0.0,0.0
12:54:36,679954.0,0.0,0.0
12:54:36,679888.0,0.0,0.0
12:54:36,679458.0,0.0,0.0
12:54:36,679918.0,0.0,0.0
12:54:36,679194.0,0.0,0.0
12:54:36,679652.0,0.0,0.0
12:54:36,679508.0,0.0,0.0
12:54:36,679272.0,0.0,0.0
12:54:36,679859.0,0.0,0.0
12:54:36,679145.0,0.0,0.0
12:54:36,679664.0,0.0,0.0
12:54:36,679444.0,0.0,0.0
12:54:36,679146.0,0.0,0.0
12:54:36,679740.0,0.0,0.0
12:54:36,679020.0,0.0,0.0
12:54:36,679528.0,0.0,0.0
12:54:36,679329.0,0.0,0.0
12:54:36,679060.0,0.0,0.0
12:54:36,679621.0,0.0,0.0
12:54:36,678914.0,0.0,0.0
12:54:36,679430.0,0.0,0.0
12:54:36,679232.0,0.0,0.0
12:54:36,678969.0,0.0,0.0
12:54:36,679571.0,0.0,0.0
12:54:36,678844.0,0.0,0.0
12:54:36,679351.0,0.0,0.0
12:54:36,679172.0,0.0,0.0
12:54:36,678937.0,0.0,0.0
12:54:36,679506.0,0.0,0.0
12:54:36,678821.0,0.0,0.0
12:54:37,679371.0,0.0,0.0
12:54:37,679184.0,0.0,0.0
12:54:37,678986.0,0.0,0.0
12:54:37,679556.0,0.0,0.0
12:54:37,678847.0,0.0,0.0
12:54:37,679391.0,0.0,0.0
12:54:37,679186.0,0.0,0.0
12:54:37,678966.0,0.0,0.0
12:54:37,679548.0,0.0,0.0
12:54:37,678862.0,0.0,0.0
12:54:37,679408.0,0.0,0.0
12:54:37,679203.0,0.0,0.0
12:54:37,678986.0,0.0,0.0
12:54:37,679522.0,0.0,0.0
12:54:37,678811.0,0.0,0.0
12:54:37,679398.0,0.0,0.0
12:54:37,679151.0,0.0,0.0
12:54:37,678940.0,0.0,0.0
12:54:37,679485.0,0.0,0.0
12:54:37,678783.0,0.0,0.0
12:54:37,679335.0,0.0,0.0
12:54:37,679122.0,0.0,0.0
12:54:37,678908.0,0.0,0.0
12:54:37,679458.0,0.0,0.0
12:54:37,678767.0,0.0,0.0
12:54:37,679300.0,0.0,0.0
12:54:37,679060.0,0.0,0.0
12:54:37,678879.0,0.0,0.0
12:54:37,679386.0,0.0,0.0
12:54:37,678704.0,0.0,0.0
12:54:37,679281.0,0.0,0.0
12:54:37,679027.0,0.0,0.0
12:54:37,678877.0,0.0,0.0
12:54:37,679406.0,0.0,0.0
12:54:37,678686.0,0.0,0.0
12:54:37,679258.0,0.0,0.0
12:54:37,679026.0,0.0,0.0
12:54:37,678881.0,0.0,0.0
12:54:37,679366.0,0.0,0.0
12:54:37,678685.0,0.0,0.0
12:54:37,679264.0,0.0,0.0
12:54:37,678990.0,0.0,0.0
12:54:37,678829.0,0.0,0.0
12:54:37,679311.0,0.0,0.0
12:54:37,678636.0,0.0,0.0
12:54:37,679186.0,0.0,0.0
12:54:37,678903.0,0.0,0.0
12:54:37,678760.0,0.0,0.0
12:54:37,679271.0,0.0,0.0
12:54:37,678591.0,0.0,0.0
12:54:37,679171.0,0.0,0.0
12:54:37,678875.0,0.0,0.0
12:54:37,678764.0,0.0,0.0
12:54:37,679251.0,0.0,0.0
12:54:37,678529.0,0.0,0.0
12:54:37,679094.0,0.0,0.0
12:54:37,678826.0,0.0,0.0
12:54:37,678703.0,0.0,0.0
12:54:37,679169.0,0.0,0.0
12:54:37,678450.0,0.0,0.0
12:54:37,679004.0,0.0,0.0
12:54:37,678703.0,0.0,0.0
12:54:37,678713.0,0.0,0.0
12:54:37,679311.0,0.0,0.0
12:54:37,678718.0,0.0,0.0
12:54:37,679276.0,0.0,0.0
12:54:37,678799.0,0.0,0.0
12:54:37,678609.0,0.0,0.0
12:54:37,679053.0,0.0,0.0
12:54:37,678391.0,0.0,0.0
12:54:37,678996.0,0.0,0.0
12:54:37,678678.0,0.0,0.0
12:54:37,678575.0,0.0,0.0
12:54:37,679043.0,0.0,0.0
12:54:37,678344.0,0.0,0.0
12:54:37,678911.0,0.0,0.0
12:54:37,678552.0,0.0,0.0
12:54:37,678448.0,0.0,0.0
12:54:37,678884.0,0.0,0.0
12:54:37,678208.0,0.0,0.0
12:54:37,678810.0,0.0,0.0
12:54:37,678453.0,0.0,0.0
12:54:37,678364.0,0.0,0.0
12:54:37,678816.0,0.0,0.0
12:54:37,678137.0,0.0,0.0
12:54:37,678742.0,0.0,0.0
12:54:37,678393.0,0.0,0.0
12:54:37,678329.0,0.0,0.0
12:54:37,678766.0,0.0,0.0
12:54:37,678078.0,0.0,0.0
12:54:37,678719.0,0.0,0.0
12:54:37,678360.0,0.0,0.0
12:54:37,678283.0,0.0,0.0
12:54:37,678734.0,0.0,0.0
12:54:37,678066.0,0.0,0.0
12:54:37,678711.0,0.0,0.0
12:54:37,678332.0,0.0,0.0
12:54:37,678323.0,0.0,0.0
12:54:37,678759.0,0.0,0.0
12:54:37,678093.0,0.0,0.0
12:54:37,678759.0,0.0,0.0
12:54:37,678352.0,0.0,0.0
12:54:37,678340.0,0.0,0.0
12:54:37,678748.0,0.0,0.0
12:54:37,678064.0,0.0,0.0
12:54:37,678665.0,0.0,0.0
12:54:37,678216.0,0.0,0.0
12:54:37,678171.0,0.0,0.0
12:54:37,678576.0,0.0,0.0
12:54:37,677912.0,0.0,0.0
12:54:37,678528.0,0.0,0.0
12:54:37,678116.0,0.0,0.0
12:54:37,678104.0,0.0,0.0
12:54:37,678474.0,0.0,0.0
12:54:37,677821.0,0.0,0.0
12:54:37,678481.0,0.0,0.0
12:54:37,678068.0,0.0,0.0
12:54:37,678078.0,0.0,0.0
12:54:37,678445.0,0.0,0.0
12:54:37,677765.0,0.0,0.0
12:54:37,678434.0,0.0,0.0
12:54:37,678023.0,0.0,0.0
12:54:37,677994.0,0.0,0.0
12:54:37,678364.0,0.0,0.0
12:54:37,677717.0,0.0,0.0
12:54:38,678389.0,0.0,0.0
12:54:38,677971.0,0.0,0.0
12:54:38,677980.0,0.0,0.0
12:54:38,678320.0,0.0,0.0
12:54:38,677663.0,0.0,0.0
12:54:38,678327.0,0.0,0.0
12:54:38,677843.0,0.0,0.0
12:54:38,677891.0,0.0,0.0
12:54:38,678261.0,0.0,0.0
12:54:38,677595.0,0.0,0.0
12:54:38,678268.0,0.0,0.0
12:54:38,677815.0,0.0,0.0
12:54:38,677844.0,0.0,0.0
12:54:38,678217.0,0.0,0.0
12:54:38,677552.0,0.0,0.0
12:54:38,678192.0,0.0,0.0
12:54:38,677746.0,0.0,0.0
12:54:38,677822.0,0.0,0.0
12:54:38,678159.0,0.0,0.0
12:54:38,677521.0,0.0,0.0
12:54:38,678173.0,0.0,0.0
12:54:38,677708.0,0.0,0.0
12:54:38,677786.0,0.0,0.0
12:54:38,678105.0,0.0,0.0
12:54:38,677454.0,0.0,0.0
12:54:38,678126.0,0.0,0.0
12:54:38,677623.0,0.0,0.0
12:54:38,677704.0,0.0,0.0
12:54:38,678011.0,0.0,0.0
12:54:38,677381.0,0.0,0.0
12:54:38,678089.0,0.0,0.0
12:54:38,677591.0,0.0,0.0
12:54:38,677693.0,0.0,0.0
12:54:38,678026.0,0.0,0.0
12:54:38,677409.0,0.0,0.0
12:54:38,678018.0,0.0,0.0
12:54:38,677464.0,0.0,0.0
12:54:38,677592.0,0.0,0.0
12:54:38,677988.0,0.0,0.0
12:54:38,677524.0,0.0,0.0
12:54:38,678313.0,0.0,0.0
12:54:38,677777.0,0.0,0.0
12:54:38,677691.0,0.0,0.0
12:54:38,677868.0,0.0,0.0
12:54:38,677217.0,0.0,0.0
12:54:38,677909.0,0.0,0.0
12:54:38,677487.0,0.0,0.0
12:54:38,677638.0,0.0,0.0
12:54:38,677914.0,0.0,0.0
12:54:38,677301.0,0.0,0.0
12:54:38,677974.0,0.0,0.0
12:54:38,677460.0,0.0,0.0
12:54:38,677583.0,0.0,0.0
12:54:38,677872.0,0.0,0.0
12:54:38,677256.0,0.0,0.0
12:54:38,677891.0,0.0,0.0
12:54:38,677366.0,0.0,0.0
12:54:38,677467.0,0.0,0.0
12:54:38,677731.0,0.0,0.0
12:54:38,677126.0,0.0,0.0
12:54:38,677803.0,0.0,0.0
12:54:38,677269.0,0.0,0.0
12:54:38,677426.0,0.0,0.0
12:54:38,677689.0,0.0,0.0
12:54:38,677069.0,0.0,0.0
12:54:38,677737.0,0.0,0.0
12:54:38,677205.0,0.0,0.0
12:54:38,677350.0,0.0,0.0
12:54:38,677618.0,0.0,0.0
12:54:38,677058.0,0.0,0.0
12:54:38,677764.0,0.0,0.0
12:54:38,677224.0,0.0,0.0
12:54:38,677394.0,0.0,0.0
12:54:38,677633.0,0.0,0.0
12:54:38,677054.0,0.0,0.0
12:54:38,677736.0,0.0,0.0
12:54:38,677208.0,0.0,0.0
12:54:38,677371.0,0.0,0.0
12:54:38,677601.0,0.0,0.0
12:54:38,677026.0,0.0,0.0
12:54:38,677692.0,0.0,0.0
12:54:38,677197.0,0.0,0.0
12:54:38,677336.0,0.0,0.0
12:54:38,677511.0,0.0,0.0
12:54:38,676948.0,0.0,0.0
12:54:38,677640.0,0.0,0.0
12:54:38,677095.0,0.0,0.0
12:54:38,677271.0,0.0,0.0
12:54:38,677471.0,0.0,0.0
12:54:38,676898.0,0.0,0.0
12:54:38,677548.0,0.0,0.0
12:54:38,677006.0,0.0,0.0
12:54:38,677209.0,0.0,0.0
12:54:38,677411.0,0.0,0.0
12:54:38,676833.0,0.0,0.0
12:54:38,677509.0,0.0,0.0
12:54:38,676959.0,0.0,0.0
12:54:38,677161.0,0.0,0.0
12:54:38,677373.0,0.0,0.0
12:54:38,676782.0,0.0,0.0
12:54:38,677443.0,0.0,0.0
12:54:38,676868.0,0.0,0.0
12:54:38,677066.0,0.0,0.0
12:54:38,677259.0,0.0,0.0
12:54:38,676686.0,0.0,0.0
12:54:38,677343.0,0.0,0.0
12:54:38,676781.0,0.0,0.0
12:54:38,677008.0,0.0,0.0
12:54:38,677214.0,0.0,0.0
12:54:38,676669.0,0.0,0.0
12:54:38,677346.0,0.0,0.0
12:54:38,676778.0,0.0,0.0
12:54:38,677008.0,0.0,0.0
12:54:38,677161.0,0.0,0.0
12:54:38,676620.0,0.0,0.0
12:54:38,677243.0,0.0,0.0
12:54:38,676648.0,0.0,0.0
12:54:38,676855.0,0.0,0.0
12:54:38,676996.0,0.0,0.0
12:54:38,676484.0,0.0,0.0
12:54:38,677074.0,0.0,0.0
12:54:38,676491.0,0.0,0.0
12:54:38,676646.0,0.0,0.0
12:54:38,676798.0,0.0,0.0
12:54:38,676296.0,0.0,0.0
12:54:39,676874.0,0.0,0.0
12:54:39,676403.0,0.0,0.0
12:54:39,676584.0,0.0,0.0
12:54:39,676759.0,0.0,0.0
12:54:39,676329.0,0.0,0.0
12:54:39,676859.0,0.0,0.0
12:54:39,676471.0,0.0,0.0
12:54:39,676690.0,0.0,0.0
12:54:39,676814.0,0.0,0.0
12:54:39,676493.0,0.0,0.0
12:54:39,676924.0,0.0,0.0
12:54:39,676489.0,0.0,0.0
12:54:39,676699.0,0.0,0.0
12:54:39,676793.0,0.0,0.0
12:54:39,676473.0,0.0,0.0
12:54:39,676794.0,0.0,0.0
12:54:39,676397.0,0.0,0.0
12:54:39,676701.0,0.0,0.0
12:54:39,676897.0,0.0,0.0
12:54:39,676748.0,0.0,0.0
12:54:39,677196.0,0.0,0.0
12:54:39,676643.0,0.0,0.0
12:54:39,676637.0,0.0,0.0
12:54:39,676660.0,0.0,0.0
12:54:39,676361.0,0.0,0.0
12:54:39,676854.0,0.0,0.0
12:54:39,676481.0,0.0,0.0
12:54:39,676700.0,0.0,0.0
12:54:39,676785.0,0.0,0.0
12:54:39,676479.0,0.0,0.0
12:54:39,676916.0,0.0,0.0
12:54:39,676515.0,0.0,0.0
12:54:39,676701.0,0.0,0.0
12:54:39,676741.0,0.0,0.0
12:54:39,676401.0,0.0,0.0
12:54:39,676834.0,0.0,0.0
12:54:39,676383.0,0.0,0.0
12:54:39,676586.0,0.0,0.0
12:54:39,676643.0,0.0,0.0
12:54:39,676296.0,0.0,0.0
12:54:39,676767.0,0.0,0.0
12:54:39,676299.0,0.0,0.0
12:54:39,676541.0,0.0,0.0
12:54:39,676610.0,0.0,0.0
12:54:39,676290.0,0.0,0.0
12:54:39,676734.0,0.0,0.0
12:54:39,676269.0,0.0,0.0
12:54:39,676578.0,0.0,0.0
12:54:39,676632.0,0.0,0.0
12:54:39,676300.0,0.0,0.0
12:54:39,676778.0,0.0,0.0
12:54:39,676303.0,0.0,0.0
12:54:39,676599.0,0.0,0.0
12:54:39,676651.0,0.0,0.0
12:54:39,676308.0,0.0,0.0
12:54:39,676774.0,0.0,0.0
12:54:39,676358.0,0.0,0.0
12:54:39,676630.0,0.0,0.0
12:54:39,676650.0,0.0,0.0
12:54:39,676338.0,0.0,0.0
12:54:39,676804.0,0.0,0.0
12:54:39,676328.0,0.0,0.0
12:54:39,676584.0,0.0,0.0
12:54:39,676613.0,0.0,0.0
12:54:39,676317.0,0.0,0.0
12:54:39,676761.0,0.0,0.0
12:54:39,676253.0,0.0,0.0
12:54:39,676548.0,0.0,0.0
12:54:39,676537.0,0.0,0.0
12:54:39,676240.0,0.0,0.0
12:54:39,676693.0,0.0,0.0
12:54:39,676208.0,0.0,0.0
12:54:39,676496.0,0.0,0.0
12:54:39,676486.0,0.0,0.0
12:54:39,676223.0,0.0,0.0
12:54:39,676652.0,0.0,0.0
12:54:39,676175.0,0.0,0.0
12:54:39,676489.0,0.0,0.0
12:54:39,676412.0,0.0,0.0
12:54:39,676183.0,0.0,0.0
12:54:39,676600.0,0.0,0.0
12:54:39,676132.0,0.0,0.0
12:54:39,676466.0,0.0,0.0
12:54:39,676362.0,0.0,0.0
12:54:39,676180.0,0.0,0.0
12:54:39,676599.0,0.0,0.0
12:54:39,676087.0,0.0,0.0
12:54:39,676495.0,0.0,0.0
12:54:39,676342.0,0.0,0.0
12:54:39,676153.0,0.0,0.0
12:54:39,676678.0,0.0,0.0
12:54:39,676131.0,0.0,0.0
12:54:39,676599.0,0.0,0.0
12:54:39,676454.0,0.0,0.0
12:54:39,676191.0,0.0,0.0
12:54:39,676689.0,0.0,0.0
12:54:39,676080.0,0.0,0.0
12:54:39,676549.0,0.0,0.0
12:54:39,676398.0,0.0,0.0
12:54:39,676176.0,0.0,0.0
12:54:39,676717.0,0.0,0.0
12:54:39,676123.0,0.0,0.0
12:54:39,676582.0,0.0,0.0
12:54:39,676437.0,0.0,0.0
12:54:39,676201.0,0.0,0.0
12:54:39,676746.0,0.0,0.0
12:54:39,676121.0,0.0,0.0
12:54:39,676596.0,0.0,0.0
12:54:39,676464.0,0.0,0.0
12:54:39,676240.0,0.0,0.0
12:54:39,676791.0,0.0,0.0
12:54:39,676136.0,0.0,0.0
12:54:39,676624.0,0.0,0.0
12:54:39,676485.0,0.0,0.0
12:54:39,676257.0,0.0,0.0
12:54:39,676810.0,0.0,0.0
12:54:39,676182.0,0.0,0.0
12:54:39,676705.0,0.0,0.0
12:54:39,676544.0,0.0,0.0
12:54:39,676279.0,0.0,0.0
12:54:39,676823.0,0.0,0.0
12:54:39,676208.0,0.0,0.0
12:54:39,676673.0,0.0,0.0
12:54:39,676449.0,0.0,0.0
12:54:39,676257.0,0.0,0.0
12:54:40,676869.0,0.0,0.0
12:54:40,676383.0,0.0,0.0
12:54:40,676986.0,0.0,0.0
12:54:40,676816.0,0.0,0.0
12:54:40,676417.0,0.0,0.0
12:54:40,676816.0,0.0,0.0
12:54:40,676174.0,0.0,0.0
12:54:40,676639.0,0.0,0.0
12:54:40,676493.0,0.0,0.0
12:54:40,676323.0,0.0,0.0
12:54:40,676838.0,0.0,0.0
12:54:40,676281.0,0.0,0.0
12:54:40,676763.0,0.0,0.0
12:54:40,676597.0,0.0,0.0
12:54:40,676438.0,0.0,0.0
12:54:40,676852.0,0.0,0.0
12:54:40,676388.0,0.0,0.0
12:54:40,676773.0,0.0,0.0
12:54:40,676539.0,0.0,0.0
12:54:40,676412.0,0.0,0.0
12:54:40,676756.0,0.0,0.0
12:54:40,676329.0,0.0,0.0
12:54:40,676674.0,0.0,0.0
12:54:40,676547.0,0.0,0.0
12:54:40,676551.0,0.0,0.0
12:54:40,676823.0,0.0,0.0
12:54:40,676466.0,0.0,0.0
12:54:40,676787.0,0.0,0.0
12:54:40,676641.0,0.0,0.0
12:54:40,676549.0,0.0,0.0
12:54:40,676792.0,0.0,0.0
12:54:40,676421.0,0.0,0.0
12:54:40,676747.0,0.0,0.0
12:54:40,676629.0,0.0,0.0
12:54:40,676587.0,0.0,0.0
12:54:40,676823.0,0.0,0.0
12:54:40,676507.0,0.0,0.0
12:54:40,676798.0,0.0,0.0
12:54:40,676633.0,0.0,0.0
12:54:40,676588.0,0.0,0.0
12:54:40,676831.0,0.0,0.0
12:54:40,676501.0,0.0,0.0
12:54:40,676808.0,0.0,0.0
12:54:40,676603.0,0.0,0.0
12:54:40,676511.0,0.0,0.0
12:54:40,676732.0,0.0,0.0
12:54:40,676377.0,0.0,0.0
12:54:40,676729.0,0.0,0.0
12:54:40,676567.0,0.0,0.0
12:54:40,676522.0,0.0,0.0
12:54:40,676749.0,0.0,0.0
12:54:40,676402.0,0.0,0.0
12:54:40,676714.0,0.0,0.0
12:54:40,676549.0,0.0,0.0
12:54:40,676498.0,0.0,0.0
12:54:40,676741.0,0.0,0.0
12:54:40,676403.0,0.0,0.0
12:54:40,676722.0,0.0,0.0
12:54:40,676554.0,0.0,0.0
12:54:40,676521.0,0.0,0.0
12:54:40,676753.0,0.0,0.0
12:54:40,676384.0,0.0,0.0
12:54:40,676716.0,0.0,0.0
12:54:40,676573.0,0.0,0.0
12:54:40,676536.0,0.0,0.0
12:54:40,676758.0,0.0,0.0
12:54:40,676458.0,0.0,0.0
12:54:40,676775.0,0.0,0.0
12:54:40,676579.0,0.0,0.0
12:54:40,676557.0,0.0,0.0
12:54:40,676819.0,0.0,0.0
12:54:40,676514.0,0.0,0.0
12:54:40,676830.0,0.0,0.0
12:54:40,676631.0,0.0,0.0
12:54:40,676644.0,0.0,0.0
12:54:40,676905.0,0.0,0.0
12:54:40,676609.0,0.0,0.0
12:54:40,676945.0,0.0,0.0
12:54:40,676774.0,0.0,0.0
12:54:40,676789.0,0.0,0.0
12:54:40,677021.0,0.0,0.0
12:54:40,676721.0,0.0,0.0
12:54:40,677029.0,0.0,0.0
12:54:40,676823.0,0.0,0.0
12:54:40,676843.0,0.0,0.0
12:54:40,677034.0,0.0,0.0
12:54:40,676744.0,0.0,0.0
12:54:40,677059.0,0.0,0.0
12:54:40,676836.0,0.0,0.0
12:54:40,676874.0,0.0,0.0
12:54:40,677060.0,0.0,0.0
12:54:40,676776.0,0.0,0.0
12:54:40,677103.0,0.0,0.0
12:54:40,676888.0,0.0,0.0
12:54:40,676906.0,0.0,0.0
12:54:40,677091.0,0.0,0.0
12:54:40,676788.0,0.0,0.0
12:54:40,677108.0,0.0,0.0
12:54:40,676858.0,0.0,0.0
12:54:40,676871.0,0.0,0.0
12:54:40,677041.0,0.0,0.0
12:54:40,676648.0,0.0,0.0
12:54:40,676995.0,0.0,0.0
12:54:40,676823.0,0.0,0.0
12:54:40,676988.0,0.0,0.0
12:54:40,677285.0,0.0,0.0
12:54:40,676943.0,0.0,0.0
12:54:40,677196.0,0.0,0.0
12:54:40,676838.0,0.0,0.0
12:54:40,676791.0,0.0,0.0
12:54:40,676978.0,0.0,0.0
12:54:40,676662.0,0.0,0.0
12:54:40,677069.0,0.0,0.0
12:54:40,676824.0,0.0,0.0
12:54:40,676873.0,0.0,0.0
12:54:40,677077.0,0.0,0.0
12:54:40,676713.0,0.0,0.0
12:54:40,677090.0,0.0,0.0
12:54:40,676809.0,0.0,0.0
12:54:40,676831.0,0.0,0.0
12:54:40,676997.0,0.0,0.0
12:54:40,676649.0,0.0,0.0
12:54:40,677004.0,0.0,0.0
12:54:40,676736.0,0.0,0.0
12:54:40,676778.0,0.0,0.0
12:54:41,676908.0,0.0,0.0
12:54:41,676594.0,0.0,0.0
12:54:41,676904.0,0.0,0.0
12:54:41,676651.0,0.0,0.0
12:54:41,676703.0,0.0,0.0
12:54:41,676833.0,0.0,0.0
12:54:41,676586.0,0.0,0.0
12:54:41,676978.0,0.0,0.0
12:54:41,676738.0,0.0,0.0
12:54:41,676836.0,0.0,0.0
12:54:41,676986.0,0.0,0.0
12:54:41,676724.0,0.0,0.0
12:54:41,677073.0,0.0,0.0
12:54:41,676856.0,0.0,0.0
12:54:41,676893.0,0.0,0.0
12:54:41,677046.0,0.0,0.0
12:54:41,676825.0,0.0,0.0
12:54:41,677158.0,0.0,0.0
12:54:41,676914.0,0.0,0.0
12:54:41,676965.0,0.0,0.0
12:54:41,677110.0,0.0,0.0
12:54:41,676846.0,0.0,0.0
12:54:41,677121.0,0.0,0.0
12:54:41,676889.0,0.0,0.0
12:54:41,676947.0,0.0,0.0
12:54:41,677046.0,0.0,0.0
12:54:41,676747.0,0.0,0.0
12:54:41,677057.0,0.0,0.0
12:54:41,676820.0,0.0,0.0
12:54:41,676896.0,0.0,0.0
12:54:41,677015.0,0.0,0.0
12:54:41,676820.0,0.0,0.0
12:54:41,677137.0,0.0,0.0
12:54:41,676893.0,0.0,0.0
12:54:41,676988.0,0.0,0.0
12:54:41,677060.0,0.0,0.0
12:54:41,676824.0,0.0,0.0
12:54:41,677127.0,0.0,0.0
12:54:41,676885.0,0.0,0.0
12:54:41,676991.0,0.0,0.0
12:54:41,677056.0,0.0,0.0
12:54:41,676802.0,0.0,0.0
12:54:41,677079.0,0.0,0.0
12:54:41,676867.0,0.0,0.0
12:54:41,676982.0,0.0,0.0
12:54:41,677083.0,0.0,0.0
12:54:41,676859.0,0.0,0.0
12:54:41,677168.0,0.0,0.0
12:54:41,676948.0,0.0,0.0
12:54:41,677041.0,0.0,0.0
12:54:41,677173.0,0.0,0.0
12:54:41,676908.0,0.0,0.0
12:54:41,677211.0,0.0,0.0
12:54:41,677001.0,0.0,0.0
12:54:41,677056.0,0.0,0.0
12:54:41,677179.0,0.0,0.0
12:54:41,676892.0,0.0,0.0
12:54:41,677191.0,0.0,0.0
12:54:41,676954.0,0.0,0.0
12:54:41,677007.0,0.0,0.0
12:54:41,677145.0,0.0,0.0
12:54:41,676893.0,0.0,0.0
12:54:41,677195.0,0.0,0.0
12:54:41,676968.0,0.0,0.0
12:54:41,677021.0,0.0,0.0
12:54:41,677193.0,0.0,0.0
12:54:41,676921.0,0.0,0.0
12:54:41,677253.0,0.0,0.0
12:54:41,677008.0,0.0,0.0
12:54:41,677063.0,0.0,0.0
12:54:41,677191.0,0.0,0.0
12:54:41,676901.0,0.0,0.0
12:54:41,677201.0,0.0,0.0
12:54:41,676916.0,0.0,0.0
12:54:41,676930.0,0.0,0.0
12:54:41,677050.0,0.0,0.0
12:54:41,676831.0,0.0,0.0
12:54:41,677312.0,0.0,0.0
12:54:41,677148.0,0.0,0.0
12:54:41,677275.0,0.0,0.0
12:54:41,677300.0,0.0,0.0
12:54:41,676873.0,0.0,0.0
12:54:41,677158.0,0.0,0.0
12:54:41,676882.0,0.0,0.0
12:54:41,676993.0,0.0,0.0
12:54:41,677146.0,0.0,0.0
12:54:41,676825.0,0.0,0.0
12:54:41,677222.0,0.0,0.0
12:54:41,676877.0,0.0,0.0
12:54:41,676939.0,0.0,0.0
12:54:41,677038.0,0.0,0.0
12:54:41,676652.0,0.0,0.0
12:54:41,677056.0,0.0,0.0
12:54:41,676656.0,0.0,0.0
12:54:41,676774.0,0.0,0.0
12:54:41,676914.0,0.0,0.0
12:54:41,676511.0,0.0,0.0
12:54:41,676929.0,0.0,0.0
12:54:41,676551.0,0.0,0.0
12:54:41,676668.0,0.0,0.0
12:54:41,676798.0,0.0,0.0
12:54:41,676398.0,0.0,0.0
12:54:41,676794.0,0.0,0.0
12:54:41,676416.0,0.0,0.0
12:54:41,676543.0,0.0,0.0
12:54:41,676650.0,0.0,0.0
12:54:41,676269.0,0.0,0.0
12:54:41,676718.0,0.0,0.0
12:54:41,676357.0,0.0,0.0
12:54:41,676506.0,0.0,0.0
12:54:41,676611.0,0.0,0.0
12:54:41,676284.0,0.0,0.0
12:54:41,676729.0,0.0,0.0
12:54:41,676371.0,0.0,0.0
12:54:41,676552.0,0.0,0.0
12:54:41,676649.0,0.0,0.0
12:54:41,676286.0,0.0,0.0
12:54:41,676759.0,0.0,0.0
12:54:41,676350.0,0.0,0.0
12:54:41,676499.0,0.0,0.0
12:54:41,676563.0,0.0,0.0
12:54:41,676114.0,0.0,0.0
12:54:41,676607.0,0.0,0.0
12:54:41,676134.0,0.0,0.0
12:54:41,676337.0,0.0,0.0
12:54:42,676451.0,0.0,0.0
12:54:42,676013.0,0.0,0.0
12:54:42,676577.0,0.0,0.0
12:54:42,676038.0,0.0,0.0
12:54:42,676249.0,0.0,0.0
12:54:42,676367.0,0.0,0.0
12:54:42,675894.0,0.0,0.0
12:54:42,676488.0,0.0,0.0
12:54:42,675954.0,0.0,0.0
12:54:42,676181.0,0.0,0.0
12:54:42,676344.0,0.0,0.0
12:54:42,675867.0,0.0,0.0
12:54:42,676428.0,0.0,0.0
12:54:42,675854.0,0.0,0.0
12:54:42,676109.0,0.0,0.0
12:54:42,676230.0,0.0,0.0
12:54:42,675776.0,0.0,0.0
12:54:42,676389.0,0.0,0.0
12:54:42,675846.0,0.0,0.0
12:54:42,676057.0,0.0,0.0
12:54:42,676156.0,0.0,0.0
12:54:42,675678.0,0.0,0.0
12:54:42,676281.0,0.0,0.0
12:54:42,675726.0,0.0,0.0
12:54:42,675965.0,0.0,0.0
12:54:42,676082.0,0.0,0.0
12:54:42,675614.0,0.0,0.0
12:54:42,676222.0,0.0,0.0
12:54:42,675704.0,0.0,0.0
12:54:42,675946.0,0.0,0.0
12:54:42,676043.0,0.0,0.0
12:54:42,675567.0,0.0,0.0
12:54:42,676186.0,0.0,0.0
12:54:42,675606.0,0.0,0.0
12:54:42,675849.0,0.0,0.0
12:54:42,675953.0,0.0,0.0
12:54:42,675439.0,0.0,0.0
12:54:42,676096.0,0.0,0.0
12:54:42,675514.0,0.0,0.0
12:54:42,675803.0,0.0,0.0
12:54:42,675908.0,0.0,0.0
12:54:42,675443.0,0.0,0.0
12:54:42,676081.0,0.0,0.0
12:54:42,675525.0,0.0,0.0
12:54:42,675812.0,0.0,0.0
12:54:42,675929.0,0.0,0.0
12:54:42,675416.0,0.0,0.0
12:54:42,675997.0,0.0,0.0
12:54:42,675406.0,0.0,0.0
12:54:42,675738.0,0.0,0.0
12:54:42,676000.0,0.0,0.0
12:54:42,675668.0,0.0,0.0
12:54:42,676345.0,0.0,0.0
12:54:42,675633.0,0.0,0.0
12:54:42,675744.0,0.0,0.0
12:54:42,675792.0,0.0,0.0
12:54:42,675318.0,0.0,0.0
12:54:42,676004.0,0.0,0.0
12:54:42,675426.0,0.0,0.0
12:54:42,675706.0,0.0,0.0
12:54:42,675794.0,0.0,0.0
12:54:42,675307.0,0.0,0.0
12:54:42,675930.0,0.0,0.0
12:54:42,675299.0,0.0,0.0
12:54:42,675584.0,0.0,0.0
12:54:42,675677.0,0.0,0.0
12:54:42,675190.0,0.0,0.0
12:54:42,675806.0,0.0,0.0
12:54:42,675214.0,0.0,0.0
12:54:42,675500.0,0.0,0.0
12:54:42,675576.0,0.0,0.0
12:54:42,675126.0,0.0,0.0
12:54:42,675751.0,0.0,0.0
12:54:42,675136.0,0.0,0.0
12:54:42,675446.0,0.0,0.0
12:54:42,675487.0,0.0,0.0
12:54:42,675028.0,0.0,0.0
12:54:42,675626.0,0.0,0.0
12:54:42,675018.0,0.0,0.0
12:54:42,675346.0,0.0,0.0
12:54:42,675429.0,0.0,0.0
12:54:42,675015.0,0.0,0.0
12:54:42,675674.0,0.0,0.0
12:54:42,675048.0,0.0,0.0
12:54:42,675411.0,0.0,0.0
12:54:42,675449.0,0.0,0.0
12:54:42,675005.0,0.0,0.0
12:54:42,675698.0,0.0,0.0
12:54:42,675018.0,0.0,0.0
12:54:42,675432.0,0.0,0.0
12:54:42,675494.0,0.0,0.0
12:54:42,675038.0,0.0,0.0
12:54:42,675646.0,0.0,0.0
12:54:42,674991.0,0.0,0.0
12:54:42,675349.0,0.0,0.0
12:54:42,675325.0,0.0,0.0
12:54:42,674939.0,0.0,0.0
12:54:42,675563.0,0.0,0.0
12:54:42,674908.0,0.0,0.0
12:54:42,675304.0,0.0,0.0
12:54:42,675303.0,0.0,0.0
12:54:42,674882.0,0.0,0.0
12:54:42,675516.0,0.0,0.0
12:54:42,674886.0,0.0,0.0
12:54:42,675260.0,0.0,0.0
12:54:42,675245.0,0.0,0.0
12:54:42,674875.0,0.0,0.0
12:54:42,675495.0,0.0,0.0
12:54:42,674822.0,0.0,0.0
12:54:42,675240.0,0.0,0.0
12:54:42,675204.0,0.0,0.0
12:54:42,674803.0,0.0,0.0
12:54:42,675428.0,0.0,0.0
12:54:42,674783.0,0.0,0.0
12:54:42,675176.0,0.0,0.0
12:54:42,675144.0,0.0,0.0
12:54:42,674777.0,0.0,0.0
12:54:42,675390.0,0.0,0.0
12:54:42,674755.0,0.0,0.0
12:54:42,675183.0,0.0,0.0
12:54:42,675126.0,0.0,0.0
12:54:42,674769.0,0.0,0.0
12:54:42,675407.0,0.0,0.0
12:54:42,674756.0,0.0,0.0
12:54:42,675191.0,0.0,0.0
12:54:43,675116.0,0.0,0.0
12:54:43,674753.0,0.0,0.0
12:54:43,675345.0,0.0,0.0
12:54:43,674699.0,0.0,0.0
12:54:43,675149.0,0.0,0.0
12:54:43,675061.0,0.0,0.0
12:54:43,674756.0,0.0,0.0
12:54:43,675366.0,0.0,0.0
12:54:43,674684.0,0.0,0.0
12:54:43,675143.0,0.0,0.0
12:54:43,675021.0,0.0,0.0
12:54:43,674679.0,0.0,0.0
12:54:43,675314.0,0.0,0.0
12:54:43,674629.0,0.0,0.0
12:54:43,675068.0,0.0,0.0
12:54:43,674982.0,0.0,0.0
12:54:43,674678.0,0.0,0.0
12:54:43,675251.0,0.0,0.0
12:54:43,674559.0,0.0,0.0
12:54:43,675023.0,0.0,0.0
12:54:43,674894.0,0.0,0.0
12:54:43,674585.0,0.0,0.0
12:54:43,675127.0,0.0,0.0
12:54:43,674378.0,0.0,0.0
12:54:43,674848.0,0.0,0.0
12:54:43,674800.0,0.0,0.0
12:54:43,674678.0,0.0,0.0
12:54:43,675361.0,0.0,0.0
12:54:43,674680.0,0.0,0.0
12:54:43,674983.0,0.0,0.0
12:54:43,674674.0,0.0,0.0
12:54:43,674371.0,0.0,0.0
12:54:43,674948.0,0.0,0.0
12:54:43,674288.0,0.0,0.0
12:54:43,674814.0,0.0,0.0
12:54:43,674650.0,0.0,0.0
12:54:43,674346.0,0.0,0.0
12:54:43,674948.0,0.0,0.0
12:54:43,674243.0,0.0,0.0
12:54:43,674701.0,0.0,0.0
12:54:43,674559.0,0.0,0.0
12:54:43,674296.0,0.0,0.0
12:54:43,674859.0,0.0,0.0
12:54:43,674131.0,0.0,0.0
12:54:43,674628.0,0.0,0.0
12:54:43,674433.0,0.0,0.0
12:54:43,674164.0,0.0,0.0
12:54:43,674738.0,0.0,0.0
12:54:43,674026.0,0.0,0.0
12:54:43,674509.0,0.0,0.0
12:54:43,674305.0,0.0,0.0
12:54:43,674044.0,0.0,0.0
12:54:43,674591.0,0.0,0.0
12:54:43,673880.0,0.0,0.0
12:54:43,674372.0,0.0,0.0
12:54:43,674158.0,0.0,0.0
12:54:43,673907.0,0.0,0.0
12:54:43,674479.0,0.0,0.0
12:54:43,673797.0,0.0,0.0
12:54:43,674371.0,0.0,0.0
12:54:43,674240.0,0.0,0.0
12:54:43,674031.0,0.0,0.0
12:54:43,674592.0,0.0,0.0
12:54:43,673919.0,0.0,0.0
12:54:43,674475.0,0.0,0.0
12:54:43,674270.0,0.0,0.0
12:54:43,674029.0,0.0,0.0
12:54:43,674549.0,0.0,0.0
12:54:43,673853.0,0.0,0.0
12:54:43,674387.0,0.0,0.0
12:54:43,674169.0,0.0,0.0
12:54:43,673981.0,0.0,0.0
12:54:43,674511.0,0.0,0.0
12:54:43,673814.0,0.0,0.0
12:54:43,674366.0,0.0,0.0
12:54:43,674160.0,0.0,0.0
12:54:43,673953.0,0.0,0.0
12:54:43,674508.0,0.0,0.0
12:54:43,673811.0,0.0,0.0
12:54:43,674369.0,0.0,0.0
12:54:43,674133.0,0.0,0.0
12:54:43,673930.0,0.0,0.0
12:54:43,674481.0,0.0,0.0
12:54:43,673781.0,0.0,0.0
12:54:43,674340.0,0.0,0.0
12:54:43,674113.0,0.0,0.0
12:54:43,673921.0,0.0,0.0
12:54:43,674419.0,0.0,0.0
12:54:43,673732.0,0.0,0.0
12:54:43,674318.0,0.0,0.0
12:54:43,674070.0,0.0,0.0
12:54:43,673891.0,0.0,0.0
12:54:43,674416.0,0.0,0.0
12:54:43,673714.0,0.0,0.0
12:54:43,674281.0,0.0,0.0
12:54:43,674015.0,0.0,0.0
12:54:43,673866.0,0.0,0.0
12:54:43,674352.0,0.0,0.0
12:54:43,673680.0,0.0,0.0
12:54:43,674261.0,0.0,0.0
12:54:43,674013.0,0.0,0.0
12:54:43,673894.0,0.0,0.0
12:54:43,674395.0,0.0,0.0
12:54:43,673734.0,0.0,0.0
12:54:43,674327.0,0.0,0.0
12:54:43,674045.0,0.0,0.0
12:54:43,673889.0,0.0,0.0
12:54:43,674389.0,0.0,0.0
12:54:43,673717.0,0.0,0.0
12:54:43,674286.0,0.0,0.0
12:54:43,674011.0,0.0,0.0
12:54:43,673908.0,0.0,0.0
12:54:43,674381.0,0.0,0.0
12:54:43,673718.0,0.0,0.0
12:54:43,674316.0,0.0,0.0
12:54:43,674018.0,0.0,0.0
12:54:43,673914.0,0.0,0.0
12:54:43,674403.0,0.0,0.0
12:54:43,673718.0,0.0,0.0
12:54:43,674324.0,0.0,0.0
12:54:43,673988.0,0.0,0.0
12:54:43,673871.0,0.0,0.0
12:54:43,674316.0,0.0,0.0
12:54:43,673608.0,0.0,0.0
12:54:43,674228.0,0.0,0.0
12:54:44,674009.0,0.0,0.0
12:54:44,674107.0,0.0,0.0
12:54:44,674704.0,0.0,0.0
12:54:44,673957.0,0.0,0.0
12:54:44,674358.0,0.0,0.0
12:54:44,673945.0,0.0,0.0
12:54:44,673808.0,0.0,0.0
12:54:44,674305.0,0.0,0.0
12:54:44,673681.0,0.0,0.0
12:54:44,674288.0,0.0,0.0
12:54:44,673978.0,0.0,0.0
12:54:44,673884.0,0.0,0.0
12:54:44,674314.0,0.0,0.0
12:54:44,673622.0,0.0,0.0
12:54:44,674204.0,0.0,0.0
12:54:44,673857.0,0.0,0.0
12:54:44,673767.0,0.0,0.0
12:54:44,674172.0,0.0,0.0
12:54:44,673491.0,0.0,0.0
12:54:44,674072.0,0.0,0.0
12:54:44,673689.0,0.0,0.0
12:54:44,673601.0,0.0,0.0
12:54:44,674070.0,0.0,0.0
12:54:44,673399.0,0.0,0.0
12:54:44,674000.0,0.0,0.0
12:54:44,673615.0,0.0,0.0
12:54:44,673584.0,0.0,0.0
12:54:44,673990.0,0.0,0.0
12:54:44,673309.0,0.0,0.0
12:54:44,673948.0,0.0,0.0
12:54:44,673543.0,0.0,0.0
12:54:44,673494.0,0.0,0.0
12:54:44,673934.0,0.0,0.0
12:54:44,673277.0,0.0,0.0
12:54:44,673930.0,0.0,0.0
12:54:44,673539.0,0.0,0.0
12:54:44,673526.0,0.0,0.0
12:54:44,673944.0,0.0,0.0
12:54:44,673286.0,0.0,0.0
12:54:44,673918.0,0.0,0.0
12:54:44,673492.0,0.0,0.0
12:54:44,673494.0,0.0,0.0
12:54:44,673886.0,0.0,0.0
12:54:44,673253.0,0.0,0.0
12:54:44,673870.0,0.0,0.0
12:54:44,673472.0,0.0,0.0
12:54:44,673441.0,0.0,0.0
12:54:44,673832.0,0.0,0.0
12:54:44,673202.0,0.0,0.0
12:54:44,673844.0,0.0,0.0
12:54:44,673433.0,0.0,0.0
12:54:44,673420.0,0.0,0.0
12:54:44,673798.0,0.0,0.0
12:54:44,673158.0,0.0,0.0
12:54:44,673819.0,0.0,0.0
12:54:44,673408.0,0.0,0.0
12:54:44,673391.0,0.0,0.0
12:54:44,673781.0,0.0,0.0
12:54:44,673175.0,0.0,0.0
12:54:44,673803.0,0.0,0.0
12:54:44,673391.0,0.0,0.0
12:54:44,673389.0,0.0,0.0
12:54:44,673755.0,0.0,0.0
12:54:44,673174.0,0.0,0.0
12:54:44,673787.0,0.0,0.0
12:54:44,673346.0,0.0,0.0
12:54:44,673371.0,0.0,0.0
12:54:44,673695.0,0.0,0.0
12:54:44,673046.0,0.0,0.0
12:54:44,673731.0,0.0,0.0
12:54:44,673294.0,0.0,0.0
12:54:44,673317.0,0.0,0.0
12:54:44,673691.0,0.0,0.0
12:54:44,673079.0,0.0,0.0
12:54:44,673736.0,0.0,0.0
12:54:44,673291.0,0.0,0.0
12:54:44,673355.0,0.0,0.0
12:54:44,673656.0,0.0,0.0
12:54:44,673038.0,0.0,0.0
12:54:44,673711.0,0.0,0.0
12:54:44,673249.0,0.0,0.0
12:54:44,673336.0,0.0,0.0
12:54:44,673671.0,0.0,0.0
12:54:44,673052.0,0.0,0.0
12:54:44,673719.0,0.0,0.0
12:54:44,673273.0,0.0,0.0
12:54:44,673333.0,0.0,0.0
12:54:44,673651.0,0.0,0.0
12:54:44,673024.0,0.0,0.0
12:54:44,673634.0,0.0,0.0
12:54:44,673176.0,0.0,0.0
12:54:44,673221.0,0.0,0.0
12:54:44,673466.0,0.0,0.0
12:54:44,672914.0,0.0,0.0
12:54:44,673623.0,0.0,0.0
12:54:44,673370.0,0.0,0.0
12:54:44,673603.0,0.0,0.0
12:54:44,673763.0,0.0,0.0
12:54:44,673069.0,0.0,0.0
12:54:44,673479.0,0.0,0.0
12:54:44,673136.0,0.0,0.0
12:54:44,673258.0,0.0,0.0
12:54:44,673523.0,0.0,0.0
12:54:44,673143.0,0.0,0.0
12:54:44,673612.0,0.0,0.0
12:54:44,673286.0,0.0,0.0
12:54:44,673399.0,0.0,0.0
12:54:44,673578.0,0.0,0.0
12:54:44,673214.0,0.0,0.0
12:54:44,673633.0,0.0,0.0
12:54:44,673294.0,0.0,0.0
12:54:44,673393.0,0.0,0.0
12:54:44,673513.0,0.0,0.0
12:54:44,673199.0,0.0,0.0
12:54:44,673614.0,0.0,0.0
12:54:44,673325.0,0.0,0.0
12:54:44,673387.0,0.0,0.0
12:54:44,673509.0,0.0,0.0
12:54:44,673252.0,0.0,0.0
12:54:44,673624.0,0.0,0.0
12:54:44,673330.0,0.0,0.0
12:54:44,673471.0,0.0,0.0
12:54:44,673618.0,0.0,0.0
12:54:44,673354.0,0.0,0.0
12:54:44,673738.0,0.0,0.0
12:54:45,673486.0,0.0,0.0
12:54:45,673619.0,0.0,0.0
12:54:45,673726.0,0.0,0.0
12:54:45,673454.0,0.0,0.0
12:54:45,673901.0,0.0,0.0
12:54:45,673577.0,0.0,0.0
12:54:45,673734.0,0.0,0.0
12:54:45,673878.0,0.0,0.0
12:54:45,673539.0,0.0,0.0
12:54:45,674066.0,0.0,0.0
12:54:45,673698.0,0.0,0.0
12:54:45,673858.0,0.0,0.0
12:54:45,674011.0,0.0,0.0
12:54:45,673576.0,0.0,0.0
12:54:45,674160.0,0.0,0.0
12:54:45,673724.0,0.0,0.0
12:54:45,673876.0,0.0,0.0
12:54:45,674053.0,0.0,0.0
12:54:45,673603.0,0.0,0.0
12:54:45,674155.0,0.0,0.0
12:54:45,673729.0,0.0,0.0
12:54:45,673903.0,0.0,0.0
12:54:45,674082.0,0.0,0.0
12:54:45,673664.0,0.0,0.0
12:54:45,674204.0,0.0,0.0
12:54:45,673838.0,0.0,0.0
12:54:45,674027.0,0.0,0.0
12:54:45,674194.0,0.0,0.0
12:54:45,673815.0,0.0,0.0
12:54:45,674326.0,0.0,0.0
12:54:45,673951.0,0.0,0.0
12:54:45,674136.0,0.0,0.0
12:54:45,674306.0,0.0,0.0
12:54:45,673940.0,0.0,0.0
12:54:45,674419.0,0.0,0.0
12:54:45,674026.0,0.0,0.0
12:54:45,674234.0,0.0,0.0
12:54:45,674349.0,0.0,0.0
12:54:45,673991.0,0.0,0.0
12:54:45,674518.0,0.0,0.0
12:54:45,674074.0,0.0,0.0
12:54:45,674241.0,0.0,0.0
12:54:45,674345.0,0.0,0.0
12:54:45,673893.0,0.0,0.0
12:54:45,674473.0,0.0,0.0
12:54:45,674117.0,0.0,0.0
12:54:45,674446.0,0.0,0.0
12:54:45,674678.0,0.0,0.0
12:54:45,674129.0,0.0,0.0
12:54:45,674618.0,0.0,0.0
12:54:45,674010.0,0.0,0.0
12:54:45,674223.0,0.0,0.0
12:54:45,674399.0,0.0,0.0
12:54:45,673945.0,0.0,0.0
12:54:45,674559.0,0.0,0.0
12:54:45,674034.0,0.0,0.0
12:54:45,674276.0,0.0,0.0
12:54:45,674423.0,0.0,0.0
12:54:45,673904.0,0.0,0.0
12:54:45,674476.0,0.0,0.0
12:54:45,673949.0,0.0,0.0
12:54:45,674180.0,0.0,0.0
12:54:45,674282.0,0.0,0.0
12:54:45,673804.0,0.0,0.0
12:54:45,674431.0,0.0,0.0
12:54:45,673878.0,0.0,0.0
12:54:45,674140.0,0.0,0.0
12:54:45,674281.0,0.0,0.0
12:54:45,673813.0,0.0,0.0
12:54:45,674421.0,0.0,0.0
12:54:45,673843.0,0.0,0.0
12:54:45,674123.0,0.0,0.0
12:54:45,674254.0,0.0,0.0
12:54:45,673769.0,0.0,0.0
12:54:45,674426.0,0.0,0.0
12:54:45,673833.0,0.0,0.0
12:54:45,674144.0,0.0,0.0
12:54:45,674264.0,0.0,0.0
12:54:45,673804.0,0.0,0.0
12:54:45,674470.0,0.0,0.0
12:54:45,673899.0,0.0,0.0
12:54:45,674216.0,0.0,0.0
12:54:45,674306.0,0.0,0.0
12:54:45,673882.0,0.0,0.0
12:54:45,674548.0,0.0,0.0
12:54:45,673919.0,0.0,0.0
12:54:45,674249.0,0.0,0.0
12:54:45,674323.0,0.0,0.0
12:54:45,673838.0,0.0,0.0
12:54:45,674489.0,0.0,0.0
12:54:45,673864.0,0.0,0.0
12:54:45,674169.0,0.0,0.0
12:54:45,674216.0,0.0,0.0
12:54:45,673779.0,0.0,0.0
12:54:45,674436.0,0.0,0.0
12:54:45,673816.0,0.0,0.0
12:54:45,674186.0,0.0,0.0
12:54:45,674251.0,0.0,0.0
12:54:45,673798.0,0.0,0.0
12:54:45,674441.0,0.0,0.0
12:54:45,673808.0,0.0,0.0
12:54:45,674191.0,0.0,0.0
12:54:45,674209.0,0.0,0.0
12:54:45,673785.0,0.0,0.0
12:54:45,674450.0,0.0,0.0
12:54:45,673838.0,0.0,0.0
12:54:45,674210.0,0.0,0.0
12:54:45,674232.0,0.0,0.0
12:54:45,673796.0,0.0,0.0
12:54:45,674473.0,0.0,0.0
12:54:45,673849.0,0.0,0.0
12:54:45,674213.0,0.0,0.0
12:54:45,674252.0,0.0,0.0
12:54:45,673818.0,0.0,0.0
12:54:45,674437.0,0.0,0.0
12:54:45,673763.0,0.0,0.0
12:54:45,674197.0,0.0,0.0
12:54:45,674316.0,0.0,0.0
12:54:45,674017.0,0.0,0.0
12:54:45,674716.0,0.0,0.0
12:54:45,673996.0,0.0,0.0
12:54:45,674244.0,0.0,0.0
12:54:45,674161.0,0.0,0.0
12:54:45,673744.0,0.0,0.0
12:54:46,674414.0,0.0,0.0
12:54:46,673790.0,0.0,0.0
12:54:46,674200.0,0.0,0.0
12:54:46,674189.0,0.0,0.0
12:54:46,673794.0,0.0,0.0
12:54:46,674421.0,0.0,0.0
12:54:46,673783.0,0.0,0.0
12:54:46,674209.0,0.0,0.0
12:54:46,674126.0,0.0,0.0
12:54:46,673712.0,0.0,0.0
12:54:46,674349.0,0.0,0.0
12:54:46,673684.0,0.0,0.0
12:54:46,674124.0,0.0,0.0
12:54:46,674075.0,0.0,0.0
12:54:46,673661.0,0.0,0.0
12:54:46,674301.0,0.0,0.0
12:54:46,673646.0,0.0,0.0
12:54:46,674107.0,0.0,0.0
12:54:46,674050.0,0.0,0.0
12:54:46,673708.0,0.0,0.0
12:54:46,674339.0,0.0,0.0
12:54:46,673662.0,0.0,0.0
12:54:46,674119.0,0.0,0.0
12:54:46,674044.0,0.0,0.0
12:54:46,673705.0,0.0,0.0
12:54:46,674346.0,0.0,0.0
12:54:46,673681.0,0.0,0.0
12:54:46,674183.0,0.0,0.0
12:54:46,674094.0,0.0,0.0
12:54:46,673742.0,0.0,0.0
12:54:46,674415.0,0.0,0.0
12:54:46,673688.0,0.0,0.0
12:54:46,674143.0,0.0,0.0
12:54:46,674074.0,0.0,0.0
12:54:46,673720.0,0.0,0.0
12:54:46,674341.0,0.0,0.0
12:54:46,673628.0,0.0,0.0
12:54:46,674096.0,0.0,0.0
12:54:46,674003.0,0.0,0.0
12:54:46,673654.0,0.0,0.0
12:54:46,674278.0,0.0,0.0
12:54:46,673568.0,0.0,0.0
12:54:46,674084.0,0.0,0.0
12:54:46,673981.0,0.0,0.0
12:54:46,673638.0,0.0,0.0
12:54:46,674276.0,0.0,0.0
12:54:46,673599.0,0.0,0.0
12:54:46,674104.0,0.0,0.0
12:54:46,673971.0,0.0,0.0
12:54:46,673667.0,0.0,0.0
12:54:46,674287.0,0.0,0.0
12:54:46,673568.0,0.0,0.0
12:54:46,674099.0,0.0,0.0
12:54:46,673983.0,0.0,0.0
12:54:46,673696.0,0.0,0.0
12:54:46,674325.0,0.0,0.0
12:54:46,673615.0,0.0,0.0
12:54:46,674144.0,0.0,0.0
12:54:46,673982.0,0.0,0.0
12:54:46,673672.0,0.0,0.0
12:54:46,674249.0,0.0,0.0
12:54:46,673524.0,0.0,0.0
12:54:46,674093.0,0.0,0.0
12:54:46,674067.0,0.0,0.0
12:54:46,673899.0,0.0,0.0
12:54:46,674558.0,0.0,0.0
12:54:46,673724.0,0.0,0.0
12:54:46,674108.0,0.0,0.0
12:54:46,673896.0,0.0,0.0
12:54:46,673646.0,0.0,0.0
12:54:46,674255.0,0.0,0.0
12:54:46,673561.0,0.0,0.0
12:54:46,674089.0,0.0,0.0
12:54:46,673923.0,0.0,0.0
12:54:46,673653.0,0.0,0.0
12:54:46,674231.0,0.0,0.0
12:54:46,673546.0,0.0,0.0
12:54:46,674031.0,0.0,0.0
12:54:46,673829.0,0.0,0.0
12:54:46,673601.0,0.0,0.0
12:54:46,674158.0,0.0,0.0
12:54:46,673475.0,0.0,0.0
12:54:46,673949.0,0.0,0.0
12:54:46,673764.0,0.0,0.0
12:54:46,673547.0,0.0,0.0
12:54:46,674084.0,0.0,0.0
12:54:46,673364.0,0.0,0.0
12:54:46,673878.0,0.0,0.0
12:54:46,673687.0,0.0,0.0
12:54:46,673434.0,0.0,0.0
12:54:46,674002.0,0.0,0.0
12:54:46,673326.0,0.0,0.0
12:54:46,673861.0,0.0,0.0
12:54:46,673669.0,0.0,0.0
12:54:46,673438.0,0.0,0.0
12:54:46,674026.0,0.0,0.0
12:54:46,673339.0,0.0,0.0
12:54:46,673896.0,0.0,0.0
12:54:46,673674.0,0.0,0.0
12:54:46,673486.0,0.0,0.0
12:54:46,674043.0,0.0,0.0
12:54:46,673333.0,0.0,0.0
12:54:46,673907.0,0.0,0.0
12:54:46,673669.0,0.0,0.0
12:54:46,673441.0,0.0,0.0
12:54:46,673974.0,0.0,0.0
12:54:46,673249.0,0.0,0.0
12:54:46,673814.0,0.0,0.0
12:54:46,673571.0,0.0,0.0
12:54:46,673349.0,0.0,0.0
12:54:46,673914.0,0.0,0.0
12:54:46,673201.0,0.0,0.0
12:54:46,673820.0,0.0,0.0
12:54:46,673553.0,0.0,0.0
12:54:46,673376.0,0.0,0.0
12:54:46,673920.0,0.0,0.0
12:54:46,673188.0,0.0,0.0
12:54:46,673798.0,0.0,0.0
12:54:46,673531.0,0.0,0.0
12:54:46,673382.0,0.0,0.0
12:54:46,673903.0,0.0,0.0
12:54:46,673187.0,0.0,0.0
12:54:46,673754.0,0.0,0.0
12:54:46,673498.0,0.0,0.0
12:54:46,673341.0,0.0,0.0
12:54:47,673870.0,0.0,0.0
12:54:47,673143.0,0.0,0.0
12:54:47,673769.0,0.0,0.0
12:54:47,673470.0,0.0,0.0
12:54:47,673317.0,0.0,0.0
12:54:47,673826.0,0.0,0.0
12:54:47,673103.0,0.0,0.0
12:54:47,673651.0,0.0,0.0
12:54:47,673310.0,0.0,0.0
12:54:47,673228.0,0.0,0.0
12:54:47,673874.0,0.0,0.0
12:54:47,673291.0,0.0,0.0
12:54:47,673954.0,0.0,0.0
12:54:47,673551.0,0.0,0.0
12:54:47,673269.0,0.0,0.0
12:54:47,673684.0,0.0,0.0
12:54:47,672983.0,0.0,0.0
12:54:47,673619.0,0.0,0.0
12:54:47,673317.0,0.0,0.0
12:54:47,673205.0,0.0,0.0
12:54:47,673654.0,0.0,0.0
12:54:47,672954.0,0.0,0.0
12:54:47,673556.0,0.0,0.0
12:54:47,673184.0,0.0,0.0
12:54:47,673064.0,0.0,0.0
12:54:47,673551.0,0.0,0.0
12:54:47,672840.0,0.0,0.0
12:54:47,673446.0,0.0,0.0
12:54:47,673113.0,0.0,0.0
12:54:47,672980.0,0.0,0.0
12:54:47,673461.0,0.0,0.0
12:54:47,672780.0,0.0,0.0
12:54:47,673377.0,0.0,0.0
12:54:47,673011.0,0.0,0.0
12:54:47,672907.0,0.0,0.0
12:54:47,673384.0,0.0,0.0
12:54:47,672648.0,0.0,0.0
12:54:47,673304.0,0.0,0.0
12:54:47,672964.0,0.0,0.0
12:54:47,672886.0,0.0,0.0
12:54:47,673354.0,0.0,0.0
12:54:47,672677.0,0.0,0.0
12:54:47,673312.0,0.0,0.0
12:54:47,672959.0,0.0,0.0
12:54:47,672871.0,0.0,0.0
12:54:47,673348.0,0.0,0.0
12:54:47,672651.0,0.0,0.0
12:54:47,673303.0,0.0,0.0
12:54:47,672924.0,0.0,0.0
12:54:47,672865.0,0.0,0.0
12:54:47,673276.0,0.0,0.0
12:54:47,672576.0,0.0,0.0
12:54:47,673210.0,0.0,0.0
12:54:47,672829.0,0.0,0.0
12:54:47,672739.0,0.0,0.0
12:54:47,673162.0,0.0,0.0
12:54:47,672494.0,0.0,0.0
12:54:47,673133.0,0.0,0.0
12:54:47,672752.0,0.0,0.0
12:54:47,672724.0,0.0,0.0
12:54:47,673109.0,0.0,0.0
12:54:47,672463.0,0.0,0.0
12:54:47,673086.0,0.0,0.0
12:54:47,672688.0,0.0,0.0
12:54:47,672678.0,0.0,0.0
12:54:47,673071.0,0.0,0.0
12:54:47,672439.0,0.0,0.0
12:54:47,673059.0,0.0,0.0
12:54:47,672675.0,0.0,0.0
12:54:47,672629.0,0.0,0.0
12:54:47,673051.0,0.0,0.0
12:54:47,672396.0,0.0,0.0
12:54:47,673032.0,0.0,0.0
12:54:47,672607.0,0.0,0.0
12:54:47,672592.0,0.0,0.0
12:54:47,672970.0,0.0,0.0
12:54:47,672369.0,0.0,0.0
12:54:47,672993.0,0.0,0.0
12:54:47,672578.0,0.0,0.0
12:54:47,672603.0,0.0,0.0
12:54:47,672989.0,0.0,0.0
12:54:47,672372.0,0.0,0.0
12:54:47,672979.0,0.0,0.0
12:54:47,672567.0,0.0,0.0
12:54:47,672581.0,0.0,0.0
12:54:47,672921.0,0.0,0.0
12:54:47,672345.0,0.0,0.0
12:54:47,672957.0,0.0,0.0
12:54:47,672562.0,0.0,0.0
12:54:47,672584.0,0.0,0.0
12:54:47,672934.0,0.0,0.0
12:54:47,672338.0,0.0,0.0
12:54:47,672955.0,0.0,0.0
12:54:47,672566.0,0.0,0.0
12:54:47,672561.0,0.0,0.0
12:54:47,672829.0,0.0,0.0
12:54:47,672186.0,0.0,0.0
12:54:47,672809.0,0.0,0.0
12:54:47,672524.0,0.0,0.0
12:54:47,672746.0,0.0,0.0
12:54:47,673139.0,0.0,0.0
12:54:47,672466.0,0.0,0.0
12:54:47,672931.0,0.0,0.0
12:54:47,672386.0,0.0,0.0
12:54:47,672398.0,0.0,0.0
12:54:47,672711.0,0.0,0.0
12:54:47,672158.0,0.0,0.0
12:54:47,672772.0,0.0,0.0
12:54:47,672322.0,0.0,0.0
12:54:47,672371.0,0.0,0.0
12:54:47,672656.0,0.0,0.0
12:54:47,672071.0,0.0,0.0
12:54:47,672637.0,0.0,0.0
12:54:47,672194.0,0.0,0.0
12:54:47,672230.0,0.0,0.0
12:54:47,672466.0,0.0,0.0
12:54:47,671873.0,0.0,0.0
12:54:47,672511.0,0.0,0.0
12:54:47,672075.0,0.0,0.0
12:54:47,672117.0,0.0,0.0
12:54:47,672344.0,0.0,0.0
12:54:47,671764.0,0.0,0.0
12:54:47,672378.0,0.0,0.0
12:54:47,671923.0,0.0,0.0
12:54:47,672041.0,0.0,0.0
12:54:47,672285.0,0.0,0.0
12:54:48,671686.0,0.0,0.0
12:54:48,672331.0,0.0,0.0
12:54:48,671910.0,0.0,0.0
12:54:48,672001.0,0.0,0.0
12:54:48,672304.0,0.0,0.0
12:54:48,671722.0,0.0,0.0
12:54:48,672367.0,0.0,0.0
12:54:48,671943.0,0.0,0.0
12:54:48,672064.0,0.0,0.0
12:54:48,672320.0,0.0,0.0
12:54:48,671751.0,0.0,0.0
12:54:48,672398.0,0.0,0.0
12:54:48,671927.0,0.0,0.0
12:54:48,672026.0,0.0,0.0
12:54:48,672286.0,0.0,0.0
12:54:48,671726.0,0.0,0.0
12:54:48,672387.0,0.0,0.0
12:54:48,671919.0,0.0,0.0
12:54:48,672039.0,0.0,0.0
12:54:48,672294.0,0.0,0.0
12:54:48,671714.0,0.0,0.0
12:54:48,672343.0,0.0,0.0
12:54:48,671873.0,0.0,0.0
12:54:48,672015.0,0.0,0.0
12:54:48,672266.0,0.0,0.0
12:54:48,671699.0,0.0,0.0
12:54:48,672348.0,0.0,0.0
12:54:48,671841.0,0.0,0.0
12:54:48,671991.0,0.0,0.0
12:54:48,672249.0,0.0,0.0
12:54:48,671678.0,0.0,0.0
12:54:48,672313.0,0.0,0.0
12:54:48,671805.0,0.0,0.0
12:54:48,671977.0,0.0,0.0
12:54:48,672226.0,0.0,0.0
12:54:48,671652.0,0.0,0.0
12:54:48,672284.0,0.0,0.0
12:54:48,671766.0,0.0,0.0
12:54:48,671963.0,0.0,0.0
12:54:48,672199.0,0.0,0.0
12:54:48,671634.0,0.0,0.0
12:54:48,672291.0,0.0,0.0
12:54:48,671766.0,0.0,0.0
12:54:48,671943.0,0.0,0.0
12:54:48,672191.0,0.0,0.0
12:54:48,671617.0,0.0,0.0
12:54:48,672267.0,0.0,0.0
12:54:48,671748.0,0.0,0.0
12:54:48,671943.0,0.0,0.0
12:54:48,672181.0,0.0,0.0
12:54:48,671624.0,0.0,0.0
12:54:48,672263.0,0.0,0.0
12:54:48,671714.0,0.0,0.0
12:54:48,671949.0,0.0,0.0
12:54:48,672161.0,0.0,0.0
12:54:48,671591.0,0.0,0.0
12:54:48,672266.0,0.0,0.0
12:54:48,671725.0,0.0,0.0
12:54:48,671939.0,0.0,0.0
12:54:48,672175.0,0.0,0.0
12:54:48,671623.0,0.0,0.0
12:54:48,672285.0,0.0,0.0
12:54:48,671741.0,0.0,0.0
12:54:48,671920.0,0.0,0.0
12:54:48,672103.0,0.0,0.0
12:54:48,671536.0,0.0,0.0
12:54:48,672181.0,0.0,0.0
12:54:48,671697.0,0.0,0.0
12:54:48,672065.0,0.0,0.0
12:54:48,672378.0,0.0,0.0
12:54:48,671887.0,0.0,0.0
12:54:48,672362.0,0.0,0.0
12:54:48,671676.0,0.0,0.0
12:54:48,671824.0,0.0,0.0
12:54:48,672009.0,0.0,0.0
12:54:48,671516.0,0.0,0.0
12:54:48,672192.0,0.0,0.0
12:54:48,671648.0,0.0,0.0
12:54:48,671866.0,0.0,0.0
12:54:48,672027.0,0.0,0.0
12:54:48,671488.0,0.0,0.0
12:54:48,672106.0,0.0,0.0
12:54:48,671540.0,0.0,0.0
12:54:48,671764.0,0.0,0.0
12:54:48,671871.0,0.0,0.0
12:54:48,671358.0,0.0,0.0
12:54:48,671986.0,0.0,0.0
12:54:48,671394.0,0.0,0.0
12:54:48,671619.0,0.0,0.0
12:54:48,671728.0,0.0,0.0
12:54:48,671207.0,0.0,0.0
12:54:48,671848.0,0.0,0.0
12:54:48,671284.0,0.0,0.0
12:54:48,671546.0,0.0,0.0
12:54:48,671649.0,0.0,0.0
12:54:48,671147.0,0.0,0.0
12:54:48,671779.0,0.0,0.0
12:54:48,671204.0,0.0,0.0
12:54:48,671483.0,0.0,0.0
12:54:48,671589.0,0.0,0.0
12:54:48,671105.0,0.0,0.0
12:54:48,671770.0,0.0,0.0
12:54:48,671174.0,0.0,0.0
12:54:48,671451.0,0.0,0.0
12:54:48,671546.0,0.0,0.0
12:54:48,671068.0,0.0,0.0
12:54:48,671748.0,0.0,0.0
12:54:48,671138.0,0.0,0.0
12:54:48,671378.0,0.0,0.0
12:54:48,671501.0,0.0,0.0
12:54:48,671040.0,0.0,0.0
12:54:48,671662.0,0.0,0.0
12:54:48,671058.0,0.0,0.0
12:54:48,671308.0,0.0,0.0
12:54:48,671418.0,0.0,0.0
12:54:48,670956.0,0.0,0.0
12:54:48,671576.0,0.0,0.0
12:54:48,670948.0,0.0,0.0
12:54:48,671283.0,0.0,0.0
12:54:48,671372.0,0.0,0.0
12:54:48,670920.0,0.0,0.0
12:54:48,671541.0,0.0,0.0
12:54:48,670940.0,0.0,0.0
12:54:48,671254.0,0.0,0.0
12:54:48,671314.0,0.0,0.0
12:54:49,670842.0,0.0,0.0
12:54:49,671498.0,0.0,0.0
12:54:49,670892.0,0.0,0.0
12:54:49,671209.0,0.0,0.0
12:54:49,671274.0,0.0,0.0
12:54:49,670839.0,0.0,0.0
12:54:49,671474.0,0.0,0.0
12:54:49,670872.0,0.0,0.0
12:54:49,671200.0,0.0,0.0
12:54:49,671253.0,0.0,0.0
12:54:49,670821.0,0.0,0.0
12:54:49,671471.0,0.0,0.0
12:54:49,670833.0,0.0,0.0
12:54:49,671203.0,0.0,0.0
12:54:49,671273.0,0.0,0.0
12:54:49,670851.0,0.0,0.0
12:54:49,671473.0,0.0,0.0
12:54:49,670865.0,0.0,0.0
12:54:49,671191.0,0.0,0.0
12:54:49,671221.0,0.0,0.0
12:54:49,670788.0,0.0,0.0
12:54:49,671441.0,0.0,0.0
12:54:49,670843.0,0.0,0.0
12:54:49,671179.0,0.0,0.0
12:54:49,671203.0,0.0,0.0
12:54:49,670775.0,0.0,0.0
12:54:49,671426.0,0.0,0.0
12:54:49,670830.0,0.0,0.0
12:54:49,671176.0,0.0,0.0
12:54:49,671187.0,0.0,0.0
12:54:49,670781.0,0.0,0.0
12:54:49,671409.0,0.0,0.0
12:54:49,670805.0,0.0,0.0
12:54:49,671118.0,0.0,0.0
12:54:49,671151.0,0.0,0.0
12:54:49,670781.0,0.0,0.0
12:54:49,671397.0,0.0,0.0
12:54:49,670738.0,0.0,0.0
12:54:49,671045.0,0.0,0.0
12:54:49,671059.0,0.0,0.0
12:54:49,670805.0,0.0,0.0
12:54:49,671596.0,0.0,0.0
12:54:49,671063.0,0.0,0.0
12:54:49,671345.0,0.0,0.0
12:54:49,671162.0,0.0,0.0
12:54:49,670685.0,0.0,0.0
12:54:49,671267.0,0.0,0.0
12:54:49,670654.0,0.0,0.0
12:54:49,671084.0,0.0,0.0
12:54:49,671084.0,0.0,0.0
12:54:49,670698.0,0.0,0.0
12:54:49,671299.0,0.0,0.0
12:54:49,670686.0,0.0,0.0
12:54:49,671025.0,0.0,0.0
12:54:49,670965.0,0.0,0.0
12:54:49,670579.0,0.0,0.0
12:54:49,671163.0,0.0,0.0
12:54:49,670524.0,0.0,0.0
12:54:49,670908.0,0.0,0.0
12:54:49,670850.0,0.0,0.0
12:54:49,670496.0,0.0,0.0
12:54:49,671096.0,0.0,0.0
12:54:49,670453.0,0.0,0.0
12:54:49,670856.0,0.0,0.0
12:54:49,670819.0,0.0,0.0
12:54:49,670476.0,0.0,0.0
12:54:49,671059.0,0.0,0.0
12:54:49,670456.0,0.0,0.0
12:54:49,670840.0,0.0,0.0
12:54:49,670798.0,0.0,0.0
12:54:49,670474.0,0.0,0.0
12:54:49,671071.0,0.0,0.0
12:54:49,670422.0,0.0,0.0
12:54:49,670832.0,0.0,0.0
12:54:49,670794.0,0.0,0.0
12:54:49,670497.0,0.0,0.0
12:54:49,671083.0,0.0,0.0
12:54:49,670454.0,0.0,0.0
12:54:49,670890.0,0.0,0.0
12:54:49,670781.0,0.0,0.0
12:54:49,670466.0,0.0,0.0
12:54:49,671054.0,0.0,0.0
12:54:49,670428.0,0.0,0.0
12:54:49,670851.0,0.0,0.0
12:54:49,670749.0,0.0,0.0
12:54:49,670462.0,0.0,0.0
12:54:49,671067.0,0.0,0.0
12:54:49,670386.0,0.0,0.0
12:54:49,670823.0,0.0,0.0
12:54:49,670706.0,0.0,0.0
12:54:49,670414.0,0.0,0.0
12:54:49,670971.0,0.0,0.0
12:54:49,670337.0,0.0,0.0
12:54:49,670769.0,0.0,0.0
12:54:49,670662.0,0.0,0.0
12:54:49,670383.0,0.0,0.0
12:54:49,670961.0,0.0,0.0
12:54:49,670306.0,0.0,0.0
12:54:49,670776.0,0.0,0.0
12:54:49,670656.0,0.0,0.0
12:54:49,670349.0,0.0,0.0
12:54:49,670883.0,0.0,0.0
12:54:49,670253.0,0.0,0.0
12:54:49,670735.0,0.0,0.0
12:54:49,670591.0,0.0,0.0
12:54:49,670287.0,0.0,0.0
12:54:49,670868.0,0.0,0.0
12:54:49,670218.0,0.0,0.0
12:54:49,670696.0,0.0,0.0
12:54:49,670546.0,0.0,0.0
12:54:49,670269.0,0.0,0.0
12:54:49,670858.0,0.0,0.0
12:54:49,670216.0,0.0,0.0
12:54:49,670672.0,0.0,0.0
12:54:49,670513.0,0.0,0.0
12:54:49,670246.0,0.0,0.0
12:54:49,670800.0,0.0,0.0
12:54:49,670126.0,0.0,0.0
12:54:49,670645.0,0.0,0.0
12:54:49,670498.0,0.0,0.0
12:54:49,670219.0,0.0,0.0
12:54:49,670816.0,0.0,0.0
12:54:49,670113.0,0.0,0.0
12:54:49,670609.0,0.0,0.0
12:54:50,670448.0,0.0,0.0
12:54:50,670225.0,0.0,0.0
12:54:50,670801.0,0.0,0.0
12:54:50,670114.0,0.0,0.0
12:54:50,670631.0,0.0,0.0
12:54:50,670456.0,0.0,0.0
12:54:50,670201.0,0.0,0.0
12:54:50,670684.0,0.0,0.0
12:54:50,670003.0,0.0,0.0
12:54:50,670540.0,0.0,0.0
12:54:50,670468.0,0.0,0.0
12:54:50,670422.0,0.0,0.0
12:54:50,671113.0,0.0,0.0
12:54:50,670322.0,0.0,0.0
12:54:50,670624.0,0.0,0.0
12:54:50,670334.0,0.0,0.0
12:54:50,670107.0,0.0,0.0
12:54:50,670676.0,0.0,0.0
12:54:50,670014.0,0.0,0.0
12:54:50,670560.0,0.0,0.0
12:54:50,670353.0,0.0,0.0
12:54:50,670154.0,0.0,0.0
12:54:50,670653.0,0.0,0.0
12:54:50,669963.0,0.0,0.0
12:54:50,670478.0,0.0,0.0
12:54:50,670229.0,0.0,0.0
12:54:50,670000.0,0.0,0.0
12:54:50,670508.0,0.0,0.0
12:54:50,669820.0,0.0,0.0
12:54:50,670366.0,0.0,0.0
12:54:50,670122.0,0.0,0.0
12:54:50,669908.0,0.0,0.0
12:54:50,670424.0,0.0,0.0
12:54:50,669759.0,0.0,0.0
12:54:50,670296.0,0.0,0.0
12:54:50,670038.0,0.0,0.0
12:54:50,669866.0,0.0,0.0
12:54:50,670370.0,0.0,0.0
12:54:50,669748.0,0.0,0.0
12:54:50,670268.0,0.0,0.0
12:54:50,670068.0,0.0,0.0
12:54:50,669919.0,0.0,0.0
12:54:50,670436.0,0.0,0.0
12:54:50,669819.0,0.0,0.0
12:54:50,670361.0,0.0,0.0
12:54:50,670114.0,0.0,0.0
12:54:50,669993.0,0.0,0.0
12:54:50,670467.0,0.0,0.0
12:54:50,669839.0,0.0,0.0
12:54:50,670364.0,0.0,0.0
12:54:50,670088.0,0.0,0.0
12:54:50,669929.0,0.0,0.0
12:54:50,670351.0,0.0,0.0
12:54:50,669757.0,0.0,0.0
12:54:50,670249.0,0.0,0.0
12:54:50,670023.0,0.0,0.0
12:54:50,669914.0,0.0,0.0
12:54:50,670294.0,0.0,0.0
12:54:50,669776.0,0.0,0.0
12:54:50,670188.0,0.0,0.0
12:54:50,669953.0,0.0,0.0
12:54:50,669876.0,0.0,0.0
12:54:50,670202.0,0.0,0.0
12:54:50,669749.0,0.0,0.0
12:54:50,670200.0,0.0,0.0
12:54:50,669976.0,0.0,0.0
12:54:50,669946.0,0.0,0.0
12:54:50,670254.0,0.0,0.0
12:54:50,669779.0,0.0,0.0
12:54:50,670227.0,0.0,0.0
12:54:50,669991.0,0.0,0.0
12:54:50,669942.0,0.0,0.0
12:54:50,670277.0,0.0,0.0
12:54:50,669802.0,0.0,0.0
12:54:50,670274.0,0.0,0.0
12:54:50,669974.0,0.0,0.0
12:54:50,669901.0,0.0,0.0
12:54:50,670299.0,0.0,0.0
12:54:50,669716.0,0.0,0.0
12:54:50,670294.0,0.0,0.0
12:54:50,669991.0,0.0,0.0
12:54:50,669893.0,0.0,0.0
12:54:50,670363.0,0.0,0.0
12:54:50,669686.0,0.0,0.0
12:54:50,670269.0,0.0,0.0
12:54:50,669968.0,0.0,0.0
12:54:50,669888.0,0.0,0.0
12:54:50,670312.0,0.0,0.0
12:54:50,669692.0,0.0,0.0
12:54:50,670293.0,0.0,0.0
12:54:50,669978.0,0.0,0.0
12:54:50,669892.0,0.0,0.0
12:54:50,670261.0,0.0,0.0
12:54:50,669656.0,0.0,0.0
12:54:50,670334.0,0.0,0.0
12:54:50,670138.0,0.0,0.0
12:54:50,670193.0,0.0,0.0
12:54:50,670646.0,0.0,0.0
12:54:50,669845.0,0.0,0.0
12:54:50,670323.0,0.0,0.0
12:54:50,669949.0,0.0,0.0
12:54:50,669918.0,0.0,0.0
12:54:50,670389.0,0.0,0.0
12:54:50,669785.0,0.0,0.0
12:54:50,670394.0,0.0,0.0
12:54:50,670032.0,0.0,0.0
12:54:50,670004.0,0.0,0.0
12:54:50,670409.0,0.0,0.0
12:54:50,669753.0,0.0,0.0
12:54:50,670349.0,0.0,0.0
12:54:50,669995.0,0.0,0.0
12:54:50,669939.0,0.0,0.0
12:54:50,670335.0,0.0,0.0
12:54:50,669711.0,0.0,0.0
12:54:50,670308.0,0.0,0.0
12:54:50,669965.0,0.0,0.0
12:54:50,669941.0,0.0,0.0
12:54:50,670348.0,0.0,0.0
12:54:50,669731.0,0.0,0.0
12:54:50,670367.0,0.0,0.0
12:54:50,670024.0,0.0,0.0
12:54:50,670022.0,0.0,0.0
12:54:50,670433.0,0.0,0.0
12:54:50,669796.0,0.0,0.0
12:54:50,670411.0,0.0,0.0
12:54:51,670043.0,0.0,0.0
12:54:51,670091.0,0.0,0.0
12:54:51,670541.0,0.0,0.0
12:54:51,669910.0,0.0,0.0
12:54:51,670566.0,0.0,0.0
12:54:51,670209.0,0.0,0.0
12:54:51,670269.0,0.0,0.0
12:54:51,670653.0,0.0,0.0
12:54:51,670017.0,0.0,0.0
12:54:51,670640.0,0.0,0.0
12:54:51,670244.0,0.0,0.0
12:54:51,670271.0,0.0,0.0
12:54:51,670619.0,0.0,0.0
12:54:51,670026.0,0.0,0.0
12:54:51,670682.0,0.0,0.0
12:54:51,670231.0,0.0,0.0
12:54:51,670285.0,0.0,0.0
12:54:51,670628.0,0.0,0.0
12:54:51,670029.0,0.0,0.0
12:54:51,670678.0,0.0,0.0
12:54:51,670245.0,0.0,0.0
12:54:51,670309.0,0.0,0.0
12:54:51,670693.0,0.0,0.0
12:54:51,670079.0,0.0,0.0
12:54:51,670723.0,0.0,0.0
12:54:51,670274.0,0.0,0.0
12:54:51,670356.0,0.0,0.0
12:54:51,670711.0,0.0,0.0
12:54:51,670113.0,0.0,0.0
12:54:51,670783.0,0.0,0.0
12:54:51,670366.0,0.0,0.0
12:54:51,670461.0,0.0,0.0
12:54:51,670800.0,0.0,0.0
12:54:51,670191.0,0.0,0.0
12:54:51,670823.0,0.0,0.0
12:54:51,670381.0,0.0,0.0
12:54:51,670492.0,0.0,0.0
12:54:51,670848.0,0.0,0.0
12:54:51,670249.0,0.0,0.0
12:54:51,670873.0,0.0,0.0
12:54:51,670430.0,0.0,0.0
12:54:51,670552.0,0.0,0.0
12:54:51,670866.0,0.0,0.0
12:54:51,670215.0,0.0,0.0
12:54:51,670864.0,0.0,0.0
12:54:51,670436.0,0.0,0.0
12:54:51,670644.0,0.0,0.0
12:54:51,671067.0,0.0,0.0
12:54:51,670553.0,0.0,0.0
12:54:51,671176.0,0.0,0.0
12:54:51,670574.0,0.0,0.0
12:54:51,670594.0,0.0,0.0
12:54:51,670861.0,0.0,0.0
12:54:51,670297.0,0.0,0.0
12:54:51,670987.0,0.0,0.0
12:54:51,670518.0,0.0,0.0
12:54:51,670663.0,0.0,0.0
12:54:51,670965.0,0.0,0.0
12:54:51,670335.0,0.0,0.0
12:54:51,670974.0,0.0,0.0
12:54:51,670493.0,0.0,0.0
12:54:51,670651.0,0.0,0.0
12:54:51,670874.0,0.0,0.0
12:54:51,670301.0,0.0,0.0
12:54:51,670984.0,0.0,0.0
12:54:51,670473.0,0.0,0.0
12:54:51,670602.0,0.0,0.0
12:54:51,670868.0,0.0,0.0
12:54:51,670294.0,0.0,0.0
12:54:51,670996.0,0.0,0.0
12:54:51,670444.0,0.0,0.0
12:54:51,670594.0,0.0,0.0
12:54:51,670859.0,0.0,0.0
12:54:51,670296.0,0.0,0.0
12:54:51,670990.0,0.0,0.0
12:54:51,670467.0,0.0,0.0
12:54:51,670662.0,0.0,0.0
12:54:51,670910.0,0.0,0.0
12:54:51,670364.0,0.0,0.0
12:54:51,671043.0,0.0,0.0
12:54:51,670521.0,0.0,0.0
12:54:51,670700.0,0.0,0.0
12:54:51,670983.0,0.0,0.0
12:54:51,670439.0,0.0,0.0
12:54:51,671096.0,0.0,0.0
12:54:51,670543.0,0.0,0.0
12:54:51,670743.0,0.0,0.0
12:54:51,670971.0,0.0,0.0
12:54:51,670393.0,0.0,0.0
12:54:51,671066.0,0.0,0.0
12:54:51,670503.0,0.0,0.0
12:54:51,670708.0,0.0,0.0
12:54:51,670912.0,0.0,0.0
12:54:51,670337.0,0.0,0.0
12:54:51,671034.0,0.0,0.0
12:54:51,670486.0,0.0,0.0
12:54:51,670734.0,0.0,0.0
12:54:51,670941.0,0.0,0.0
12:54:51,670413.0,0.0,0.0
12:54:51,671088.0,0.0,0.0
12:54:51,670513.0,0.0,0.0
12:54:51,670740.0,0.0,0.0
12:54:51,670938.0,0.0,0.0
12:54:51,670398.0,0.0,0.0
12:54:51,671068.0,0.0,0.0
12:54:51,670537.0,0.0,0.0
12:54:51,670766.0,0.0,0.0
12:54:51,670946.0,0.0,0.0
12:54:51,670446.0,0.0,0.0
12:54:51,671147.0,0.0,0.0
12:54:51,670606.0,0.0,0.0
12:54:51,670844.0,0.0,0.0
12:54:51,670989.0,0.0,0.0
12:54:51,670468.0,0.0,0.0
12:54:51,671110.0,0.0,0.0
12:54:51,670503.0,0.0,0.0
12:54:51,670764.0,0.0,0.0
12:54:51,670977.0,0.0,0.0
12:54:51,670589.0,0.0,0.0
12:54:51,671300.0,0.0,0.0
12:54:51,670771.0,0.0,0.0
12:54:51,670953.0,0.0,0.0
12:54:51,670971.0,0.0,0.0
12:54:51,670421.0,0.0,0.0
12:54:51,671072.0,0.0,0.0
12:54:52,670538.0,0.0,0.0
12:54:52,670846.0,0.0,0.0
12:54:52,670942.0,0.0,0.0
12:54:52,670430.0,0.0,0.0
12:54:52,671063.0,0.0,0.0
12:54:52,670501.0,0.0,0.0
12:54:52,670774.0,0.0,0.0
12:54:52,670846.0,0.0,0.0
12:54:52,670355.0,0.0,0.0
12:54:52,670998.0,0.0,0.0
12:54:52,670369.0,0.0,0.0
12:54:52,670624.0,0.0,0.0
12:54:52,670719.0,0.0,0.0
12:54:52,670237.0,0.0,0.0
12:54:52,670872.0,0.0,0.0
12:54:52,670323.0,0.0,0.0
12:54:52,670591.0,0.0,0.0
12:54:52,670656.0,0.0,0.0
12:54:52,670238.0,0.0,0.0
12:54:52,670824.0,0.0,0.0
12:54:52,670254.0,0.0,0.0
12:54:52,670563.0,0.0,0.0
12:54:52,670674.0,0.0,0.0
12:54:52,670258.0,0.0,0.0
12:54:52,670873.0,0.0,0.0
12:54:52,670340.0,0.0,0.0
12:54:52,670641.0,0.0,0.0
12:54:52,670722.0,0.0,0.0
12:54:52,670314.0,0.0,0.0
12:54:52,670932.0,0.0,0.0
12:54:52,670453.0,0.0,0.0
12:54:52,670690.0,0.0,0.0
12:54:52,670756.0,0.0,0.0
12:54:52,670448.0,0.0,0.0
12:54:52,670890.0,0.0,0.0
12:54:52,670441.0,0.0,0.0
12:54:52,670691.0,0.0,0.0
12:54:52,670691.0,0.0,0.0
12:54:52,670391.0,0.0,0.0
12:54:52,670821.0,0.0,0.0
12:54:52,670412.0,0.0,0.0
12:54:52,670648.0,0.0,0.0
12:54:52,670678.0,0.0,0.0
12:54:52,670454.0,0.0,0.0
12:54:52,670823.0,0.0,0.0
12:54:52,670502.0,0.0,0.0
12:54:52,670714.0,0.0,0.0
12:54:52,670715.0,0.0,0.0
12:54:52,670528.0,0.0,0.0
12:54:52,670878.0,0.0,0.0
12:54:52,670538.0,0.0,0.0
12:54:52,670774.0,0.0,0.0
12:54:52,670766.0,0.0,0.0
12:54:52,670521.0,0.0,0.0
12:54:52,670972.0,0.0,0.0
12:54:52,670541.0,0.0,0.0
12:54:52,670841.0,0.0,0.0
12:54:52,670805.0,0.0,0.0
12:54:52,670443.0,0.0,0.0
12:54:52,670990.0,0.0,0.0
12:54:52,670364.0,0.0,0.0
12:54:52,670659.0,0.0,0.0
12:54:52,670684.0,0.0,0.0
12:54:52,670403.0,0.0,0.0
12:54:52,671065.0,0.0,0.0
12:54:52,670578.0,0.0,0.0
12:54:52,670915.0,0.0,0.0
12:54:52,670780.0,0.0,0.0
12:54:52,670299.0,0.0,0.0
12:54:52,670839.0,0.0,0.0
12:54:52,670273.0,0.0,0.0
12:54:52,670629.0,0.0,0.0
12:54:52,670628.0,0.0,0.0
12:54:52,670278.0,0.0,0.0
12:54:52,670834.0,0.0,0.0
12:54:52,670219.0,0.0,0.0
12:54:52,670574.0,0.0,0.0
12:54:52,670531.0,0.0,0.0
12:54:52,670135.0,0.0,0.0
12:54:52,670666.0,0.0,0.0
12:54:52,670045.0,0.0,0.0
12:54:52,670419.0,0.0,0.0
12:54:52,670366.0,0.0,0.0
12:54:52,669976.0,0.0,0.0
12:54:52,670539.0,0.0,0.0
12:54:52,669899.0,0.0,0.0
12:54:52,670283.0,0.0,0.0
12:54:52,670191.0,0.0,0.0
12:54:52,669841.0,0.0,0.0
12:54:52,670424.0,0.0,0.0
12:54:52,669788.0,0.0,0.0
12:54:52,670178.0,0.0,0.0
12:54:52,670111.0,0.0,0.0
12:54:52,669782.0,0.0,0.0
12:54:52,670364.0,0.0,0.0
12:54:52,669718.0,0.0,0.0
12:54:52,670129.0,0.0,0.0
12:54:52,670058.0,0.0,0.0
12:54:52,669743.0,0.0,0.0
12:54:52,670315.0,0.0,0.0
12:54:52,669677.0,0.0,0.0
12:54:52,670073.0,0.0,0.0
12:54:52,669992.0,0.0,0.0
12:54:52,669668.0,0.0,0.0
12:54:52,670254.0,0.0,0.0
12:54:52,669615.0,0.0,0.0
12:54:52,670028.0,0.0,0.0
12:54:52,669978.0,0.0,0.0
12:54:52,669659.0,0.0,0.0
12:54:52,670206.0,0.0,0.0
12:54:52,669553.0,0.0,0.0
12:54:52,669974.0,0.0,0.0
12:54:52,669856.0,0.0,0.0
12:54:52,669565.0,0.0,0.0
12:54:52,670138.0,0.0,0.0
12:54:52,669498.0,0.0,0.0
12:54:52,669953.0,0.0,0.0
12:54:52,669852.0,0.0,0.0
12:54:52,669567.0,0.0,0.0
12:54:52,670109.0,0.0,0.0
12:54:52,669471.0,0.0,0.0
12:54:52,669910.0,0.0,0.0
12:54:52,669796.0,0.0,0.0
12:54:52,669529.0,0.0,0.0
12:54:52,670049.0,0.0,0.0
12:54:53,669440.0,0.0,0.0
12:54:53,669903.0,0.0,0.0
12:54:53,669746.0,0.0,0.0
12:54:53,669465.0,0.0,0.0
12:54:53,670051.0,0.0,0.0
12:54:53,669429.0,0.0,0.0
12:54:53,669859.0,0.0,0.0
12:54:53,669712.0,0.0,0.0
12:54:53,669473.0,0.0,0.0
12:54:53,670011.0,0.0,0.0
12:54:53,669376.0,0.0,0.0
12:54:53,669793.0,0.0,0.0
12:54:53,669581.0,0.0,0.0
12:54:53,669351.0,0.0,0.0
12:54:53,669970.0,0.0,0.0
12:54:53,669479.0,0.0,0.0
12:54:53,670036.0,0.0,0.0
12:54:53,669818.0,0.0,0.0
12:54:53,669417.0,0.0,0.0
12:54:53,669853.0,0.0,0.0
12:54:53,669204.0,0.0,0.0
12:54:53,669665.0,0.0,0.0
12:54:53,669499.0,0.0,0.0
12:54:53,669316.0,0.0,0.0
12:54:53,669836.0,0.0,0.0
12:54:53,669194.0,0.0,0.0
12:54:53,669658.0,0.0,0.0
12:54:53,669455.0,0.0,0.0
12:54:53,669231.0,0.0,0.0
12:54:53,669709.0,0.0,0.0
12:54:53,669080.0,0.0,0.0
12:54:53,669539.0,0.0,0.0
12:54:53,669332.0,0.0,0.0
12:54:53,669141.0,0.0,0.0
12:54:53,669656.0,0.0,0.0
12:54:53,669025.0,0.0,0.0
12:54:53,669498.0,0.0,0.0
12:54:53,669313.0,0.0,0.0
12:54:53,669086.0,0.0,0.0
12:54:53,669561.0,0.0,0.0
12:54:53,668942.0,0.0,0.0
12:54:53,669451.0,0.0,0.0
12:54:53,669264.0,0.0,0.0
12:54:53,669064.0,0.0,0.0
12:54:53,669550.0,0.0,0.0
12:54:53,668927.0,0.0,0.0
12:54:53,669451.0,0.0,0.0
12:54:53,669256.0,0.0,0.0
12:54:53,669079.0,0.0,0.0
12:54:53,669584.0,0.0,0.0
12:54:53,668989.0,0.0,0.0
12:54:53,669500.0,0.0,0.0
12:54:53,669299.0,0.0,0.0
12:54:53,669118.0,0.0,0.0
12:54:53,669593.0,0.0,0.0
12:54:53,668969.0,0.0,0.0
12:54:53,669455.0,0.0,0.0
12:54:53,669221.0,0.0,0.0
12:54:53,669026.0,0.0,0.0
12:54:53,669476.0,0.0,0.0
12:54:53,668844.0,0.0,0.0
12:54:53,669359.0,0.0,0.0
12:54:53,669116.0,0.0,0.0
12:54:53,668984.0,0.0,0.0
12:54:53,669468.0,0.0,0.0
12:54:53,668861.0,0.0,0.0
12:54:53,669372.0,0.0,0.0
12:54:53,669129.0,0.0,0.0
12:54:53,668976.0,0.0,0.0
12:54:53,669444.0,0.0,0.0
12:54:53,668791.0,0.0,0.0
12:54:53,669330.0,0.0,0.0
12:54:53,669093.0,0.0,0.0
12:54:53,668950.0,0.0,0.0
12:54:53,669419.0,0.0,0.0
12:54:53,668786.0,0.0,0.0
12:54:53,669346.0,0.0,0.0
12:54:53,669065.0,0.0,0.0
12:54:53,668913.0,0.0,0.0
12:54:53,669389.0,0.0,0.0
12:54:53,668755.0,0.0,0.0
12:54:53,669324.0,0.0,0.0
12:54:53,669045.0,0.0,0.0
12:54:53,668903.0,0.0,0.0
12:54:53,669356.0,0.0,0.0
12:54:53,668748.0,0.0,0.0
12:54:53,669281.0,0.0,0.0
12:54:53,669021.0,0.0,0.0
12:54:53,668913.0,0.0,0.0
12:54:53,669343.0,0.0,0.0
12:54:53,668728.0,0.0,0.0
12:54:53,669288.0,0.0,0.0
12:54:53,669011.0,0.0,0.0
12:54:53,668908.0,0.0,0.0
12:54:53,669346.0,0.0,0.0
12:54:53,668708.0,0.0,0.0
12:54:53,669271.0,0.0,0.0
12:54:53,668973.0,0.0,0.0
12:54:53,668906.0,0.0,0.0
12:54:53,669324.0,0.0,0.0
12:54:53,668686.0,0.0,0.0
12:54:53,669232.0,0.0,0.0
12:54:53,668945.0,0.0,0.0
12:54:53,668854.0,0.0,0.0
12:54:53,669288.0,0.0,0.0
12:54:53,668664.0,0.0,0.0
12:54:53,669257.0,0.0,0.0
12:54:53,668941.0,0.0,0.0
12:54:53,668845.0,0.0,0.0
12:54:53,669261.0,0.0,0.0
12:54:53,668650.0,0.0,0.0
12:54:53,669216.0,0.0,0.0
12:54:53,668913.0,0.0,0.0
12:54:53,668850.0,0.0,0.0
12:54:53,669214.0,0.0,0.0
12:54:53,668552.0,0.0,0.0
12:54:53,669129.0,0.0,0.0
12:54:53,668886.0,0.0,0.0
12:54:53,668986.0,0.0,0.0
12:54:53,669517.0,0.0,0.0
12:54:53,668900.0,0.0,0.0
12:54:53,669341.0,0.0,0.0
12:54:53,668870.0,0.0,0.0
12:54:53,668763.0,0.0,0.0
12:54:53,669134.0,0.0,0.0
12:54:54,668536.0,0.0,0.0
12:54:54,669129.0,0.0,0.0
12:54:54,668784.0,0.0,0.0
12:54:54,668739.0,0.0,0.0
12:54:54,669143.0,0.0,0.0
12:54:54,668532.0,0.0,0.0
12:54:54,669069.0,0.0,0.0
12:54:54,668699.0,0.0,0.0
12:54:54,668685.0,0.0,0.0
12:54:54,669017.0,0.0,0.0
12:54:54,668380.0,0.0,0.0
12:54:54,668938.0,0.0,0.0
12:54:54,668537.0,0.0,0.0
12:54:54,668549.0,0.0,0.0
12:54:54,668929.0,0.0,0.0
12:54:54,668299.0,0.0,0.0
12:54:54,668878.0,0.0,0.0
12:54:54,668501.0,0.0,0.0
12:54:54,668473.0,0.0,0.0
12:54:54,668828.0,0.0,0.0
12:54:54,668237.0,0.0,0.0
12:54:54,668853.0,0.0,0.0
12:54:54,668476.0,0.0,0.0
12:54:54,668465.0,0.0,0.0
12:54:54,668826.0,0.0,0.0
12:54:54,668205.0,0.0,0.0
12:54:54,668823.0,0.0,0.0
12:54:54,668433.0,0.0,0.0
12:54:54,668459.0,0.0,0.0
12:54:54,668820.0,0.0,0.0
12:54:54,668213.0,0.0,0.0
12:54:54,668838.0,0.0,0.0
12:54:54,668408.0,0.0,0.0
12:54:54,668432.0,0.0,0.0
12:54:54,668737.0,0.0,0.0
12:54:54,668112.0,0.0,0.0
12:54:54,668737.0,0.0,0.0
12:54:54,668321.0,0.0,0.0
12:54:54,668381.0,0.0,0.0
12:54:54,668676.0,0.0,0.0
12:54:54,668071.0,0.0,0.0
12:54:54,668691.0,0.0,0.0
12:54:54,668264.0,0.0,0.0
12:54:54,668276.0,0.0,0.0
12:54:54,668596.0,0.0,0.0
12:54:54,668006.0,0.0,0.0
12:54:54,668598.0,0.0,0.0
12:54:54,668189.0,0.0,0.0
12:54:54,668249.0,0.0,0.0
12:54:54,668542.0,0.0,0.0
12:54:54,667962.0,0.0,0.0
12:54:54,668575.0,0.0,0.0
12:54:54,668139.0,0.0,0.0
12:54:54,668234.0,0.0,0.0
12:54:54,668523.0,0.0,0.0
12:54:54,667919.0,0.0,0.0
12:54:54,668531.0,0.0,0.0
12:54:54,668102.0,0.0,0.0
12:54:54,668189.0,0.0,0.0
12:54:54,668513.0,0.0,0.0
12:54:54,667913.0,0.0,0.0
12:54:54,668516.0,0.0,0.0
12:54:54,668059.0,0.0,0.0
12:54:54,668144.0,0.0,0.0
12:54:54,668450.0,0.0,0.0
12:54:54,667868.0,0.0,0.0
12:54:54,668479.0,0.0,0.0
12:54:54,668011.0,0.0,0.0
12:54:54,668127.0,0.0,0.0
12:54:54,668387.0,0.0,0.0
12:54:54,667827.0,0.0,0.0
12:54:54,668454.0,0.0,0.0
12:54:54,667979.0,0.0,0.0
12:54:54,668106.0,0.0,0.0
12:54:54,668368.0,0.0,0.0
12:54:54,667831.0,0.0,0.0
12:54:54,668478.0,0.0,0.0
12:54:54,667963.0,0.0,0.0
12:54:54,668093.0,0.0,0.0
12:54:54,668358.0,0.0,0.0
12:54:54,667780.0,0.0,0.0
12:54:54,668450.0,0.0,0.0
12:54:54,667961.0,0.0,0.0
12:54:54,668092.0,0.0,0.0
12:54:54,668336.0,0.0,0.0
12:54:54,667803.0,0.0,0.0
12:54:54,668444.0,0.0,0.0
12:54:54,667984.0,0.0,0.0
12:54:54,668145.0,0.0,0.0
12:54:54,668374.0,0.0,0.0
12:54:54,667801.0,0.0,0.0
12:54:54,668451.0,0.0,0.0
12:54:54,667895.0,0.0,0.0
12:54:54,668041.0,0.0,0.0
12:54:54,668376.0,0.0,0.0
12:54:54,667995.0,0.0,0.0
12:54:54,668784.0,0.0,0.0
12:54:54,668267.0,0.0,0.0
12:54:54,668239.0,0.0,0.0
12:54:54,668328.0,0.0,0.0
12:54:54,667787.0,0.0,0.0
12:54:54,668447.0,0.0,0.0
12:54:54,667941.0,0.0,0.0
12:54:54,668116.0,0.0,0.0
12:54:54,668339.0,0.0,0.0
12:54:54,667830.0,0.0,0.0
12:54:54,668448.0,0.0,0.0
12:54:54,667924.0,0.0,0.0
12:54:54,668102.0,0.0,0.0
12:54:54,668281.0,0.0,0.0
12:54:54,667720.0,0.0,0.0
12:54:54,668356.0,0.0,0.0
12:54:54,667821.0,0.0,0.0
12:54:54,667968.0,0.0,0.0
12:54:54,668118.0,0.0,0.0
12:54:54,667613.0,0.0,0.0
12:54:54,668259.0,0.0,0.0
12:54:54,667721.0,0.0,0.0
12:54:54,667919.0,0.0,0.0
12:54:54,668112.0,0.0,0.0
12:54:54,667589.0,0.0,0.0
12:54:54,668213.0,0.0,0.0
12:54:54,667686.0,0.0,0.0
12:54:54,667911.0,0.0,0.0
12:54:54,668083.0,0.0,0.0
12:54:55,667590.0,0.0,0.0
12:54:55,668224.0,0.0,0.0
12:54:55,667666.0,0.0,0.0
12:54:55,667888.0,0.0,0.0
12:54:55,668034.0,0.0,0.0
12:54:55,667560.0,0.0,0.0
12:54:55,668218.0,0.0,0.0
12:54:55,667677.0,0.0,0.0
12:54:55,667914.0,0.0,0.0
12:54:55,668067.0,0.0,0.0
12:54:55,667571.0,0.0,0.0
12:54:55,668184.0,0.0,0.0
12:54:55,667641.0,0.0,0.0
12:54:55,667904.0,0.0,0.0
12:54:55,668041.0,0.0,0.0
12:54:55,667568.0,0.0,0.0
12:54:55,668174.0,0.0,0.0
12:54:55,667589.0,0.0,0.0
12:54:55,667860.0,0.0,0.0
12:54:55,667995.0,0.0,0.0
12:54:55,667528.0,0.0,0.0
12:54:55,668154.0,0.0,0.0
12:54:55,667586.0,0.0,0.0
12:54:55,667873.0,0.0,0.0
12:54:55,668011.0,0.0,0.0
12:54:55,667537.0,0.0,0.0
12:54:55,668171.0,0.0,0.0
12:54:55,667613.0,0.0,0.0
12:54:55,667854.0,0.0,0.0
12:54:55,667939.0,0.0,0.0
12:54:55,667474.0,0.0,0.0
12:54:55,668101.0,0.0,0.0
12:54:55,667520.0,0.0,0.0
12:54:55,667795.0,0.0,0.0
12:54:55,667904.0,0.0,0.0
12:54:55,667417.0,0.0,0.0
12:54:55,668078.0,0.0,0.0
12:54:55,667499.0,0.0,0.0
12:54:55,667802.0,0.0,0.0
12:54:55,667895.0,0.0,0.0
12:54:55,667451.0,0.0,0.0
12:54:55,668097.0,0.0,0.0
12:54:55,667506.0,0.0,0.0
12:54:55,667842.0,0.0,0.0
12:54:55,667915.0,0.0,0.0
12:54:55,667446.0,0.0,0.0
12:54:55,668095.0,0.0,0.0
12:54:55,667493.0,0.0,0.0
12:54:55,667811.0,0.0,0.0
12:54:55,667869.0,0.0,0.0
12:54:55,667430.0,0.0,0.0
12:54:55,668101.0,0.0,0.0
12:54:55,667513.0,0.0,0.0
12:54:55,667863.0,0.0,0.0
12:54:55,667907.0,0.0,0.0
12:54:55,667483.0,0.0,0.0
12:54:55,668152.0,0.0,0.0
12:54:55,667542.0,0.0,0.0
12:54:55,667913.0,0.0,0.0
12:54:55,667980.0,0.0,0.0
12:54:55,667533.0,0.0,0.0
12:54:55,668191.0,0.0,0.0
12:54:55,667577.0,0.0,0.0
12:54:55,667943.0,0.0,0.0
12:54:55,668013.0,0.0,0.0
12:54:55,667579.0,0.0,0.0
12:54:55,668176.0,0.0,0.0
12:54:55,667546.0,0.0,0.0
12:54:55,667997.0,0.0,0.0
12:54:55,668143.0,0.0,0.0
12:54:55,667853.0,0.0,0.0
12:54:55,668604.0,0.0,0.0
12:54:55,667858.0,0.0,0.0
12:54:55,668077.0,0.0,0.0
12:54:55,668058.0,0.0,0.0
12:54:55,667683.0,0.0,0.0
12:54:55,668371.0,0.0,0.0
12:54:55,667727.0,0.0,0.0
12:54:55,668130.0,0.0,0.0
12:54:55,668135.0,0.0,0.0
12:54:55,667732.0,0.0,0.0
12:54:55,668371.0,0.0,0.0
12:54:55,667733.0,0.0,0.0
12:54:55,668124.0,0.0,0.0
12:54:55,668088.0,0.0,0.0
12:54:55,667644.0,0.0,0.0
12:54:55,668303.0,0.0,0.0
12:54:55,667675.0,0.0,0.0
12:54:55,668100.0,0.0,0.0
12:54:55,668081.0,0.0,0.0
12:54:55,667708.0,0.0,0.0
12:54:55,668356.0,0.0,0.0
12:54:55,667704.0,0.0,0.0
12:54:55,668124.0,0.0,0.0
12:54:55,668084.0,0.0,0.0
12:54:55,667729.0,0.0,0.0
12:54:55,668371.0,0.0,0.0
12:54:55,667745.0,0.0,0.0
12:54:55,668164.0,0.0,0.0
12:54:55,668133.0,0.0,0.0
12:54:55,667798.0,0.0,0.0
12:54:55,668435.0,0.0,0.0
12:54:55,667831.0,0.0,0.0
12:54:55,668270.0,0.0,0.0
12:54:55,668240.0,0.0,0.0
12:54:55,667919.0,0.0,0.0
12:54:55,668548.0,0.0,0.0
12:54:55,667912.0,0.0,0.0
12:54:55,668340.0,0.0,0.0
12:54:55,668285.0,0.0,0.0
12:54:55,667924.0,0.0,0.0
12:54:55,668500.0,0.0,0.0
12:54:55,667873.0,0.0,0.0
12:54:55,668284.0,0.0,0.0
12:54:55,668235.0,0.0,0.0
12:54:55,667931.0,0.0,0.0
12:54:55,668517.0,0.0,0.0
12:54:55,667915.0,0.0,0.0
12:54:55,668364.0,0.0,0.0
12:54:55,668291.0,0.0,0.0
12:54:55,668011.0,0.0,0.0
12:54:55,668598.0,0.0,0.0
12:54:55,667995.0,0.0,0.0
12:54:55,668441.0,0.0,0.0
12:54:55,668384.0,0.0,0.0
12:54:56,668095.0,0.0,0.0
12:54:56,668663.0,0.0,0.0
12:54:56,668104.0,0.0,0.0
12:54:56,668517.0,0.0,0.0
12:54:56,668424.0,0.0,0.0
12:54:56,668151.0,0.0,0.0
12:54:56,668716.0,0.0,0.0
12:54:56,668123.0,0.0,0.0
12:54:56,668592.0,0.0,0.0
12:54:56,668486.0,0.0,0.0
12:54:56,668224.0,0.0,0.0
12:54:56,668783.0,0.0,0.0
12:54:56,668199.0,0.0,0.0
12:54:56,668655.0,0.0,0.0
12:54:56,668571.0,0.0,0.0
12:54:56,668306.0,0.0,0.0
12:54:56,668854.0,0.0,0.0
12:54:56,668238.0,0.0,0.0
12:54:56,668753.0,0.0,0.0
12:54:56,668619.0,0.0,0.0
12:54:56,668353.0,0.0,0.0
12:54:56,668934.0,0.0,0.0
12:54:56,668330.0,0.0,0.0
12:54:56,668826.0,0.0,0.0
12:54:56,668679.0,0.0,0.0
12:54:56,668409.0,0.0,0.0
12:54:56,668966.0,0.0,0.0
12:54:56,668350.0,0.0,0.0
12:54:56,668814.0,0.0,0.0
12:54:56,668634.0,0.0,0.0
12:54:56,668371.0,0.0,0.0
12:54:56,668941.0,0.0,0.0
12:54:56,668418.0,0.0,0.0
12:54:56,668998.0,0.0,0.0
12:54:56,668905.0,0.0,0.0
12:54:56,668555.0,0.0,0.0
12:54:56,668978.0,0.0,0.0
12:54:56,668277.0,0.0,0.0
12:54:56,668788.0,0.0,0.0
12:54:56,668652.0,0.0,0.0
12:54:56,668418.0,0.0,0.0
12:54:56,668941.0,0.0,0.0
12:54:56,668308.0,0.0,0.0
12:54:56,668800.0,0.0,0.0
12:54:56,668594.0,0.0,0.0
12:54:56,668375.0,0.0,0.0
12:54:56,668878.0,0.0,0.0
12:54:56,668242.0,0.0,0.0
12:54:56,668712.0,0.0,0.0
12:54:56,668536.0,0.0,0.0
12:54:56,668299.0,0.0,0.0
12:54:56,668801.0,0.0,0.0
12:54:56,668181.0,0.0,0.0
12:54:56,668716.0,0.0,0.0
12:54:56,668501.0,0.0,0.0
12:54:56,668306.0,0.0,0.0
12:54:56,668836.0,0.0,0.0
12:54:56,668182.0,0.0,0.0
12:54:56,668707.0,0.0,0.0
12:54:56,668505.0,0.0,0.0
12:54:56,668298.0,0.0,0.0
12:54:56,668809.0,0.0,0.0
12:54:56,668190.0,0.0,0.0
12:54:56,668729.0,0.0,0.0
12:54:56,668531.0,0.0,0.0
12:54:56,668373.0,0.0,0.0
12:54:56,668888.0,0.0,0.0
12:54:56,668253.0,0.0,0.0
12:54:56,668799.0,0.0,0.0
12:54:56,668588.0,0.0,0.0
12:54:56,668442.0,0.0,0.0
12:54:56,668947.0,0.0,0.0
12:54:56,668311.0,0.0,0.0
12:54:56,668809.0,0.0,0.0
12:54:56,668553.0,0.0,0.0
12:54:56,668408.0,0.0,0.0
12:54:56,668885.0,0.0,0.0
12:54:56,668239.0,0.0,0.0
12:54:56,668742.0,0.0,0.0
12:54:56,668490.0,0.0,0.0
12:54:56,668403.0,0.0,0.0
12:54:56,668875.0,0.0,0.0
12:54:56,668232.0,0.0,0.0
12:54:56,668771.0,0.0,0.0
12:54:56,668533.0,0.0,0.0
12:54:56,668402.0,0.0,0.0
12:54:56,668860.0,0.0,0.0
12:54:56,668208.0,0.0,0.0
12:54:56,668767.0,0.0,0.0
12:54:56,668514.0,0.0,0.0
12:54:56,668367.0,0.0,0.0
12:54:56,668843.0,0.0,0.0
12:54:56,668254.0,0.0,0.0
12:54:56,668794.0,0.0,0.0
12:54:56,668547.0,0.0,0.0
12:54:56,668425.0,0.0,0.0
12:54:56,668898.0,0.0,0.0
12:54:56,668251.0,0.0,0.0
12:54:56,668827.0,0.0,0.0
12:54:56,668572.0,0.0,0.0
12:54:56,668447.0,0.0,0.0
12:54:56,668889.0,0.0,0.0
12:54:56,668284.0,0.0,0.0
12:54:56,668840.0,0.0,0.0
12:54:56,668523.0,0.0,0.0
12:54:56,668376.0,0.0,0.0
12:54:56,668804.0,0.0,0.0
12:54:56,668265.0,0.0,0.0
12:54:56,668970.0,0.0,0.0
12:54:56,668764.0,0.0,0.0
12:54:56,668673.0,0.0,0.0
12:54:56,668973.0,0.0,0.0
12:54:56,668221.0,0.0,0.0
12:54:56,668729.0,0.0,0.0
12:54:56,668475.0,0.0,0.0
12:54:56,668433.0,0.0,0.0
12:54:56,668874.0,0.0,0.0
12:54:56,668225.0,0.0,0.0
12:54:56,668779.0,0.0,0.0
12:54:56,668466.0,0.0,0.0
12:54:56,668391.0,0.0,0.0
12:54:56,668779.0,0.0,0.0
12:54:56,668122.0,0.0,0.0
12:54:56,668678.0,0.0,0.0
12:54:56,668363.0,0.0,0.0
12:54:57,668289.0,0.0,0.0
12:54:57,668689.0,0.0,0.0
12:54:57,668033.0,0.0,0.0
12:54:57,668614.0,0.0,0.0
12:54:57,668270.0,0.0,0.0
12:54:57,668212.0,0.0,0.0
12:54:57,668655.0,0.0,0.0
12:54:57,667994.0,0.0,0.0
12:54:57,668549.0,0.0,0.0
12:54:57,668256.0,0.0,0.0
12:54:57,668177.0,0.0,0.0
12:54:57,668584.0,0.0,0.0
12:54:57,667958.0,0.0,0.0
12:54:57,668562.0,0.0,0.0
12:54:57,668268.0,0.0,0.0
12:54:57,668254.0,0.0,0.0
12:54:57,668626.0,0.0,0.0
12:54:57,668034.0,0.0,0.0
12:54:57,668638.0,0.0,0.0
12:54:57,668290.0,0.0,0.0
12:54:57,668279.0,0.0,0.0
12:54:57,668632.0,0.0,0.0
12:54:57,668017.0,0.0,0.0
12:54:57,668630.0,0.0,0.0
12:54:57,668253.0,0.0,0.0
12:54:57,668197.0,0.0,0.0
12:54:57,668573.0,0.0,0.0
12:54:57,667962.0,0.0,0.0
12:54:57,668547.0,0.0,0.0
12:54:57,668186.0,0.0,0.0
12:54:57,668162.0,0.0,0.0
12:54:57,668548.0,0.0,0.0
12:54:57,667942.0,0.0,0.0
12:54:57,668560.0,0.0,0.0
12:54:57,668181.0,0.0,0.0
12:54:57,668176.0,0.0,0.0
12:54:57,668574.0,0.0,0.0
12:54:57,667988.0,0.0,0.0
12:54:57,668576.0,0.0,0.0
12:54:57,668164.0,0.0,0.0
12:54:57,668183.0,0.0,0.0
12:54:57,668509.0,0.0,0.0
12:54:57,667899.0,0.0,0.0
12:54:57,668521.0,0.0,0.0
12:54:57,668146.0,0.0,0.0
12:54:57,668188.0,0.0,0.0
12:54:57,668558.0,0.0,0.0
12:54:57,667937.0,0.0,0.0
12:54:57,668530.0,0.0,0.0
12:54:57,668125.0,0.0,0.0
12:54:57,668152.0,0.0,0.0
12:54:57,668484.0,0.0,0.0
12:54:57,667885.0,0.0,0.0
12:54:57,668536.0,0.0,0.0
12:54:57,668104.0,0.0,0.0
12:54:57,668155.0,0.0,0.0
12:54:57,668504.0,0.0,0.0
12:54:57,667875.0,0.0,0.0
12:54:57,668528.0,0.0,0.0
12:54:57,668117.0,0.0,0.0
12:54:57,668140.0,0.0,0.0
12:54:57,668461.0,0.0,0.0
12:54:57,667889.0,0.0,0.0
12:54:57,668506.0,0.0,0.0
12:54:57,668072.0,0.0,0.0
12:54:57,668129.0,0.0,0.0
12:54:57,668433.0,0.0,0.0
12:54:57,667861.0,0.0,0.0
12:54:57,668506.0,0.0,0.0
12:54:57,668096.0,0.0,0.0
12:54:57,668182.0,0.0,0.0
12:54:57,668492.0,0.0,0.0
12:54:57,667912.0,0.0,0.0
12:54:57,668543.0,0.0,0.0
12:54:57,668091.0,0.0,0.0
12:54:57,668178.0,0.0,0.0
12:54:57,668496.0,0.0,0.0
12:54:57,667850.0,0.0,0.0
12:54:57,668485.0,0.0,0.0
12:54:57,667995.0,0.0,0.0
12:54:57,668015.0,0.0,0.0
12:54:57,668261.0,0.0,0.0
12:54:57,667748.0,0.0,0.0
12:54:57,668516.0,0.0,0.0
12:54:57,668138.0,0.0,0.0
12:54:57,668274.0,0.0,0.0
12:54:57,668468.0,0.0,0.0
12:54:57,667766.0,0.0,0.0
12:54:57,668318.0,0.0,0.0
12:54:57,667817.0,0.0,0.0
12:54:57,667945.0,0.0,0.0
12:54:57,668271.0,0.0,0.0
12:54:57,667675.0,0.0,0.0
12:54:57,668263.0,0.0,0.0
12:54:57,667776.0,0.0,0.0
12:54:57,667886.0,0.0,0.0
12:54:57,668127.0,0.0,0.0
12:54:57,667529.0,0.0,0.0
12:54:57,668138.0,0.0,0.0
12:54:57,667626.0,0.0,0.0
12:54:57,667739.0,0.0,0.0
12:54:57,667976.0,0.0,0.0
12:54:57,667409.0,0.0,0.0
12:54:57,668009.0,0.0,0.0
12:54:57,667497.0,0.0,0.0
12:54:57,667631.0,0.0,0.0
12:54:57,667879.0,0.0,0.0
12:54:57,667299.0,0.0,0.0
12:54:57,667922.0,0.0,0.0
12:54:57,667444.0,0.0,0.0
12:54:57,667578.0,0.0,0.0
12:54:57,667784.0,0.0,0.0
12:54:57,667249.0,0.0,0.0
12:54:57,667896.0,0.0,0.0
12:54:57,667384.0,0.0,0.0
12:54:57,667541.0,0.0,0.0
12:54:57,667766.0,0.0,0.0
12:54:57,667247.0,0.0,0.0
12:54:57,667916.0,0.0,0.0
12:54:57,667404.0,0.0,0.0
12:54:57,667546.0,0.0,0.0
12:54:57,667785.0,0.0,0.0
12:54:57,667247.0,0.0,0.0
12:54:57,667852.0,0.0,0.0
12:54:57,667341.0,0.0,0.0
12:54:58,667509.0,0.0,0.0
12:54:58,667654.0,0.0,0.0
12:54:58,667122.0,0.0,0.0
12:54:58,667751.0,0.0,0.0
12:54:58,667234.0,0.0,0.0
12:54:58,667409.0,0.0,0.0
12:54:58,667586.0,0.0,0.0
12:54:58,667070.0,0.0,0.0
12:54:58,667696.0,0.0,0.0
12:54:58,667181.0,0.0,0.0
12:54:58,667374.0,0.0,0.0
12:54:58,667527.0,0.0,0.0
12:54:58,667005.0,0.0,0.0
12:54:58,667643.0,0.0,0.0
12:54:58,667106.0,0.0,0.0
12:54:58,667293.0,0.0,0.0
12:54:58,667466.0,0.0,0.0
12:54:58,666963.0,0.0,0.0
12:54:58,667591.0,0.0,0.0
12:54:58,667061.0,0.0,0.0
12:54:58,667282.0,0.0,0.0
12:54:58,667434.0,0.0,0.0
12:54:58,666931.0,0.0,0.0
12:54:58,667560.0,0.0,0.0
12:54:58,666999.0,0.0,0.0
12:54:58,667249.0,0.0,0.0
12:54:58,667396.0,0.0,0.0
12:54:58,666868.0,0.0,0.0
12:54:58,667511.0,0.0,0.0
12:54:58,666991.0,0.0,0.0
12:54:58,667213.0,0.0,0.0
12:54:58,667339.0,0.0,0.0
12:54:58,666838.0,0.0,0.0
12:54:58,667490.0,0.0,0.0
12:54:58,666940.0,0.0,0.0
12:54:58,667186.0,0.0,0.0
12:54:58,667318.0,0.0,0.0
12:54:58,666821.0,0.0,0.0
12:54:58,667479.0,0.0,0.0
12:54:58,666909.0,0.0,0.0
12:54:58,667171.0,0.0,0.0
12:54:58,667296.0,0.0,0.0
12:54:58,666786.0,0.0,0.0
12:54:58,667409.0,0.0,0.0
12:54:58,666840.0,0.0,0.0
12:54:58,667086.0,0.0,0.0
12:54:58,667238.0,0.0,0.0
12:54:58,666741.0,0.0,0.0
12:54:58,667358.0,0.0,0.0
12:54:58,666823.0,0.0,0.0
12:54:58,667106.0,0.0,0.0
12:54:58,667194.0,0.0,0.0
12:54:58,666716.0,0.0,0.0
12:54:58,667358.0,0.0,0.0
12:54:58,666791.0,0.0,0.0
12:54:58,667061.0,0.0,0.0
12:54:58,667148.0,0.0,0.0
12:54:58,666734.0,0.0,0.0
12:54:58,667363.0,0.0,0.0
12:54:58,666761.0,0.0,0.0
12:54:58,667025.0,0.0,0.0
12:54:58,667094.0,0.0,0.0
12:54:58,666591.0,0.0,0.0
12:54:58,667206.0,0.0,0.0
12:54:58,666691.0,0.0,0.0
12:54:58,667148.0,0.0,0.0
12:54:58,667301.0,0.0,0.0
12:54:58,666879.0,0.0,0.0
12:54:58,667363.0,0.0,0.0
12:54:58,666643.0,0.0,0.0
12:54:58,666911.0,0.0,0.0
12:54:58,666978.0,0.0,0.0
12:54:58,666554.0,0.0,0.0
12:54:58,667161.0,0.0,0.0
12:54:58,666573.0,0.0,0.0
12:54:58,666906.0,0.0,0.0
12:54:58,666934.0,0.0,0.0
12:54:58,666519.0,0.0,0.0
12:54:58,667148.0,0.0,0.0
12:54:58,666503.0,0.0,0.0
12:54:58,666821.0,0.0,0.0
12:54:58,666873.0,0.0,0.0
12:54:58,666436.0,0.0,0.0
12:54:58,667032.0,0.0,0.0
12:54:58,666400.0,0.0,0.0
12:54:58,666741.0,0.0,0.0
12:54:58,666753.0,0.0,0.0
12:54:58,666310.0,0.0,0.0
12:54:58,666954.0,0.0,0.0
12:54:58,666334.0,0.0,0.0
12:54:58,666681.0,0.0,0.0
12:54:58,666704.0,0.0,0.0
12:54:58,666300.0,0.0,0.0
12:54:58,666921.0,0.0,0.0
12:54:58,666290.0,0.0,0.0
12:54:58,666673.0,0.0,0.0
12:54:58,666698.0,0.0,0.0
12:54:58,666278.0,0.0,0.0
12:54:58,666916.0,0.0,0.0
12:54:58,666306.0,0.0,0.0
12:54:58,666654.0,0.0,0.0
12:54:58,666698.0,0.0,0.0
12:54:58,666289.0,0.0,0.0
12:54:58,666896.0,0.0,0.0
12:54:58,666304.0,0.0,0.0
12:54:58,666670.0,0.0,0.0
12:54:58,666678.0,0.0,0.0
12:54:58,666298.0,0.0,0.0
12:54:58,666878.0,0.0,0.0
12:54:58,666230.0,0.0,0.0
12:54:58,666616.0,0.0,0.0
12:54:58,666574.0,0.0,0.0
12:54:58,666191.0,0.0,0.0
12:54:58,666788.0,0.0,0.0
12:54:58,666159.0,0.0,0.0
12:54:58,666527.0,0.0,0.0
12:54:58,666496.0,0.0,0.0
12:54:58,666159.0,0.0,0.0
12:54:58,666736.0,0.0,0.0
12:54:58,666083.0,0.0,0.0
12:54:58,666505.0,0.0,0.0
12:54:58,666464.0,0.0,0.0
12:54:58,666117.0,0.0,0.0
12:54:58,666728.0,0.0,0.0
12:54:58,666046.0,0.0,0.0
12:54:59,666481.0,0.0,0.0
12:54:59,666426.0,0.0,0.0
12:54:59,666074.0,0.0,0.0
12:54:59,666695.0,0.0,0.0
12:54:59,666047.0,0.0,0.0
12:54:59,666423.0,0.0,0.0
12:54:59,666359.0,0.0,0.0
12:54:59,666023.0,0.0,0.0
12:54:59,666601.0,0.0,0.0
12:54:59,665963.0,0.0,0.0
12:54:59,666386.0,0.0,0.0
12:54:59,666327.0,0.0,0.0
12:54:59,665984.0,0.0,0.0
12:54:59,666544.0,0.0,0.0
12:54:59,665916.0,0.0,0.0
12:54:59,666368.0,0.0,0.0
12:54:59,666296.0,0.0,0.0
12:54:59,665964.0,0.0,0.0
12:54:59,666551.0,0.0,0.0
12:54:59,665899.0,0.0,0.0
12:54:59,666332.0,0.0,0.0
12:54:59,666219.0,0.0,0.0
12:54:59,665883.0,0.0,0.0
12:54:59,666496.0,0.0,0.0
12:54:59,665829.0,0.0,0.0
12:54:59,666301.0,0.0,0.0
12:54:59,666201.0,0.0,0.0
12:54:59,665858.0,0.0,0.0
12:54:59,666451.0,0.0,0.0
12:54:59,665776.0,0.0,0.0
12:54:59,666188.0,0.0,0.0
12:54:59,666110.0,0.0,0.0
12:54:59,665852.0,0.0,0.0
12:54:59,666414.0,0.0,0.0
12:54:59,665790.0,0.0,0.0
12:54:59,666234.0,0.0,0.0
12:54:59,666117.0,0.0,0.0
12:54:59,665817.0,0.0,0.0
12:54:59,666362.0,0.0,0.0
12:54:59,665712.0,0.0,0.0
12:54:59,666171.0,0.0,0.0
12:54:59,666052.0,0.0,0.0
12:54:59,665762.0,0.0,0.0
12:54:59,666312.0,0.0,0.0
12:54:59,665664.0,0.0,0.0
12:54:59,666089.0,0.0,0.0
12:54:59,665908.0,0.0,0.0
12:54:59,665657.0,0.0,0.0
12:54:59,666338.0,0.0,0.0
12:54:59,665864.0,0.0,0.0
12:54:59,666456.0,0.0,0.0
12:54:59,666208.0,0.0,0.0
12:54:59,665742.0,0.0,0.0
12:54:59,666208.0,0.0,0.0
12:54:59,665529.0,0.0,0.0
12:54:59,666040.0,0.0,0.0
12:54:59,665918.0,0.0,0.0
12:54:59,665676.0,0.0,0.0
12:54:59,666226.0,0.0,0.0
12:54:59,665566.0,0.0,0.0
12:54:59,666044.0,0.0,0.0
12:54:59,665861.0,0.0,0.0
12:54:59,665581.0,0.0,0.0
12:54:59,666106.0,0.0,0.0
12:54:59,665433.0,0.0,0.0
12:54:59,665906.0,0.0,0.0
12:54:59,665712.0,0.0,0.0
12:54:59,665444.0,0.0,0.0
12:54:59,665946.0,0.0,0.0
12:54:59,665282.0,0.0,0.0
12:54:59,665768.0,0.0,0.0
12:54:59,665571.0,0.0,0.0
12:54:59,665371.0,0.0,0.0
12:54:59,665881.0,0.0,0.0
12:54:59,665217.0,0.0,0.0
12:54:59,665707.0,0.0,0.0
12:54:59,665496.0,0.0,0.0
12:54:59,665271.0,0.0,0.0
12:54:59,665791.0,0.0,0.0
12:54:59,665148.0,0.0,0.0
12:54:59,665678.0,0.0,0.0
12:54:59,665488.0,0.0,0.0
12:54:59,665272.0,0.0,0.0
12:54:59,665783.0,0.0,0.0
12:54:59,665174.0,0.0,0.0
12:54:59,665683.0,0.0,0.0
12:54:59,665473.0,0.0,0.0
12:54:59,665291.0,0.0,0.0
12:54:59,665783.0,0.0,0.0
12:54:59,665142.0,0.0,0.0
12:54:59,665675.0,0.0,0.0
12:54:59,665431.0,0.0,0.0
12:54:59,665239.0,0.0,0.0
12:54:59,665751.0,0.0,0.0
12:54:59,665089.0,0.0,0.0
12:54:59,665605.0,0.0,0.0
12:54:59,665368.0,0.0,0.0
12:54:59,665167.0,0.0,0.0
12:54:59,665626.0,0.0,0.0
12:54:59,664989.0,0.0,0.0
12:54:59,665506.0,0.0,0.0
12:54:59,665247.0,0.0,0.0
12:54:59,665088.0,0.0,0.0
12:54:59,665574.0,0.0,0.0
12:54:59,664940.0,0.0,0.0
12:54:59,665513.0,0.0,0.0
12:54:59,665243.0,0.0,0.0
12:54:59,665076.0,0.0,0.0
12:54:59,665573.0,0.0,0.0
12:54:59,664936.0,0.0,0.0
12:54:59,665509.0,0.0,0.0
12:54:59,665268.0,0.0,0.0
12:54:59,665139.0,0.0,0.0
12:54:59,665603.0,0.0,0.0
12:54:59,664956.0,0.0,0.0
12:54:59,665531.0,0.0,0.0
12:54:59,665268.0,0.0,0.0
12:54:59,665133.0,0.0,0.0
12:54:59,665611.0,0.0,0.0
12:54:59,664971.0,0.0,0.0
12:54:59,665506.0,0.0,0.0
12:54:59,665219.0,0.0,0.0
12:54:59,665121.0,0.0,0.0
12:54:59,665600.0,0.0,0.0
12:54:59,664946.0,0.0,0.0
12:55:00,665527.0,0.0,0.0
12:55:00,665231.0,0.0,0.0
12:55:00,665163.0,0.0,0.0
12:55:00,665644.0,0.0,0.0
12:55:00,665011.0,0.0,0.0
12:55:00,665602.0,0.0,0.0
12:55:00,665324.0,0.0,0.0
12:55:00,665233.0,0.0,0.0
12:55:00,665697.0,0.0,0.0
12:55:00,665115.0,0.0,0.0
12:55:00,665691.0,0.0,0.0
12:55:00,665404.0,0.0,0.0
12:55:00,665329.0,0.0,0.0
12:55:00,665816.0,0.0,0.0
12:55:00,665184.0,0.0,0.0
12:55:00,665773.0,0.0,0.0
12:55:00,665466.0,0.0,0.0
12:55:00,665413.0,0.0,0.0
12:55:00,665830.0,0.0,0.0
12:55:00,665252.0,0.0,0.0
12:55:00,665874.0,0.0,0.0
12:55:00,665557.0,0.0,0.0
12:55:00,665516.0,0.0,0.0
12:55:00,665948.0,0.0,0.0
12:55:00,665331.0,0.0,0.0
12:55:00,665939.0,0.0,0.0
12:55:00,665596.0,0.0,0.0
12:55:00,665541.0,0.0,0.0
12:55:00,665909.0,0.0,0.0
12:55:00,665284.0,0.0,0.0
12:55:00,665954.0,0.0,0.0
12:55:00,665757.0,0.0,0.0
12:55:00,665849.0,0.0,0.0
12:55:00,666321.0,0.0,0.0
12:55:00,665548.0,0.0,0.0
12:55:00,666013.0,0.0,0.0
12:55:00,665631.0,0.0,0.0
12:55:00,665634.0,0.0,0.0
12:55:00,666065.0,0.0,0.0
12:55:00,665456.0,0.0,0.0
12:55:00,666082.0,0.0,0.0
12:55:00,665756.0,0.0,0.0
12:55:00,665709.0,0.0,0.0
12:55:00,666089.0,0.0,0.0
12:55:00,665488.0,0.0,0.0
12:55:00,666079.0,0.0,0.0
12:55:00,665697.0,0.0,0.0
12:55:00,665655.0,0.0,0.0
12:55:00,666022.0,0.0,0.0
12:55:00,665411.0,0.0,0.0
12:55:00,666021.0,0.0,0.0
12:55:00,665659.0,0.0,0.0
12:55:00,665671.0,0.0,0.0
12:55:00,666017.0,0.0,0.0
12:55:00,665408.0,0.0,0.0
12:55:00,666038.0,0.0,0.0
12:55:00,665664.0,0.0,0.0
12:55:00,665666.0,0.0,0.0
12:55:00,666042.0,0.0,0.0
12:55:00,665451.0,0.0,0.0
12:55:00,666091.0,0.0,0.0
12:55:00,665731.0,0.0,0.0
12:55:00,665788.0,0.0,0.0
12:55:00,666136.0,0.0,0.0
12:55:00,665546.0,0.0,0.0
12:55:00,666193.0,0.0,0.0
12:55:00,665812.0,0.0,0.0
12:55:00,665879.0,0.0,0.0
12:55:00,666250.0,0.0,0.0
12:55:00,665628.0,0.0,0.0
12:55:00,666279.0,0.0,0.0
12:55:00,665889.0,0.0,0.0
12:55:00,665956.0,0.0,0.0
12:55:00,666293.0,0.0,0.0
12:55:00,665709.0,0.0,0.0
12:55:00,666338.0,0.0,0.0
12:55:00,665904.0,0.0,0.0
12:55:00,665944.0,0.0,0.0
12:55:00,666256.0,0.0,0.0
12:55:00,665653.0,0.0,0.0
12:55:00,666282.0,0.0,0.0
12:55:00,665848.0,0.0,0.0
12:55:00,665932.0,0.0,0.0
12:55:00,666269.0,0.0,0.0
12:55:00,665706.0,0.0,0.0
12:55:00,666398.0,0.0,0.0
12:55:00,665945.0,0.0,0.0
12:55:00,666010.0,0.0,0.0
12:55:00,666344.0,0.0,0.0
12:55:00,665791.0,0.0,0.0
12:55:00,666429.0,0.0,0.0
12:55:00,665971.0,0.0,0.0
12:55:00,666060.0,0.0,0.0
12:55:00,666379.0,0.0,0.0
12:55:00,665799.0,0.0,0.0
12:55:00,666426.0,0.0,0.0
12:55:00,665982.0,0.0,0.0
12:55:00,666080.0,0.0,0.0
12:55:00,666406.0,0.0,0.0
12:55:00,665834.0,0.0,0.0
12:55:00,666503.0,0.0,0.0
12:55:00,666006.0,0.0,0.0
12:55:00,666140.0,0.0,0.0
12:55:00,666438.0,0.0,0.0
12:55:00,665858.0,0.0,0.0
12:55:00,666517.0,0.0,0.0
12:55:00,666055.0,0.0,0.0
12:55:00,666194.0,0.0,0.0
12:55:00,666451.0,0.0,0.0
12:55:00,665876.0,0.0,0.0
12:55:00,666508.0,0.0,0.0
12:55:00,666038.0,0.0,0.0
12:55:00,666174.0,0.0,0.0
12:55:00,666473.0,0.0,0.0
12:55:00,665928.0,0.0,0.0
12:55:00,666591.0,0.0,0.0
12:55:00,666072.0,0.0,0.0
12:55:00,666245.0,0.0,0.0
12:55:00,666502.0,0.0,0.0
12:55:00,665941.0,0.0,0.0
12:55:00,666585.0,0.0,0.0
12:55:00,666076.0,0.0,0.0
12:55:00,666233.0,0.0,0.0
12:55:00,666463.0,0.0,0.0
12:55:00,665862.0,0.0,0.0
12:55:01,666477.0,0.0,0.0
12:55:01,666049.0,0.0,0.0
12:55:01,666360.0,0.0,0.0
12:55:01,666694.0,0.0,0.0
12:55:01,666153.0,0.0,0.0
12:55:01,666673.0,0.0,0.0
12:55:01,666060.0,0.0,0.0
12:55:01,666161.0,0.0,0.0
12:55:01,666383.0,0.0,0.0
12:55:01,665867.0,0.0,0.0
12:55:01,666543.0,0.0,0.0
12:55:01,666016.0,0.0,0.0
12:55:01,666158.0,0.0,0.0
12:55:01,666361.0,0.0,0.0
12:55:01,665805.0,0.0,0.0
12:55:01,666454.0,0.0,0.0
12:55:01,665924.0,0.0,0.0
12:55:01,666073.0,0.0,0.0
12:55:01,666252.0,0.0,0.0
12:55:01,665699.0,0.0,0.0
12:55:01,666382.0,0.0,0.0
12:55:01,665843.0,0.0,0.0
12:55:01,666038.0,0.0,0.0
12:55:01,666183.0,0.0,0.0
12:55:01,665659.0,0.0,0.0
12:55:01,666315.0,0.0,0.0
12:55:01,665771.0,0.0,0.0
12:55:01,665958.0,0.0,0.0
12:55:01,666124.0,0.0,0.0
12:55:01,665624.0,0.0,0.0
12:55:01,666251.0,0.0,0.0
12:55:01,665719.0,0.0,0.0
12:55:01,665950.0,0.0,0.0
12:55:01,666150.0,0.0,0.0
12:55:01,665663.0,0.0,0.0
12:55:01,666299.0,0.0,0.0
12:55:01,665799.0,0.0,0.0
12:55:01,665999.0,0.0,0.0
12:55:01,666166.0,0.0,0.0
12:55:01,665741.0,0.0,0.0
12:55:01,666356.0,0.0,0.0
12:55:01,665831.0,0.0,0.0
12:55:01,666089.0,0.0,0.0
12:55:01,666236.0,0.0,0.0
12:55:01,665756.0,0.0,0.0
12:55:01,666358.0,0.0,0.0
12:55:01,665812.0,0.0,0.0
12:55:01,666040.0,0.0,0.0
12:55:01,666160.0,0.0,0.0
12:55:01,665678.0,0.0,0.0
12:55:01,666283.0,0.0,0.0
12:55:01,665763.0,0.0,0.0
12:55:01,666031.0,0.0,0.0
12:55:01,666163.0,0.0,0.0
12:55:01,665727.0,0.0,0.0
12:55:01,666348.0,0.0,0.0
12:55:01,665774.0,0.0,0.0
12:55:01,666015.0,0.0,0.0
12:55:01,666157.0,0.0,0.0
12:55:01,665696.0,0.0,0.0
12:55:01,666319.0,0.0,0.0
12:55:01,665796.0,0.0,0.0
12:55:01,666034.0,0.0,0.0
12:55:01,666119.0,0.0,0.0
12:55:01,665667.0,0.0,0.0
12:55:01,666283.0,0.0,0.0
12:55:01,665758.0,0.0,0.0
12:55:01,666018.0,0.0,0.0
12:55:01,666132.0,0.0,0.0
12:55:01,665700.0,0.0,0.0
12:55:01,666314.0,0.0,0.0
12:55:01,665767.0,0.0,0.0
12:55:01,666043.0,0.0,0.0
12:55:01,666099.0,0.0,0.0
12:55:01,665678.0,0.0,0.0
12:55:01,666308.0,0.0,0.0
12:55:01,665773.0,0.0,0.0
12:55:01,666061.0,0.0,0.0
12:55:01,666122.0,0.0,0.0
12:55:01,665682.0,0.0,0.0
12:55:01,666269.0,0.0,0.0
12:55:01,665665.0,0.0,0.0
12:55:01,665923.0,0.0,0.0
12:55:01,666004.0,0.0,0.0
12:55:01,665664.0,0.0,0.0
12:55:01,666401.0,0.0,0.0
12:55:01,665926.0,0.0,0.0
12:55:01,666196.0,0.0,0.0
12:55:01,666118.0,0.0,0.0
12:55:01,665590.0,0.0,0.0
12:55:01,666127.0,0.0,0.0
12:55:01,665564.0,0.0,0.0
12:55:01,665924.0,0.0,0.0
12:55:01,665982.0,0.0,0.0
12:55:01,665553.0,0.0,0.0
12:55:01,666118.0,0.0,0.0
12:55:01,665531.0,0.0,0.0
12:55:01,665857.0,0.0,0.0
12:55:01,665851.0,0.0,0.0
12:55:01,665439.0,0.0,0.0
12:55:01,666031.0,0.0,0.0
12:55:01,665430.0,0.0,0.0
12:55:01,665753.0,0.0,0.0
12:55:01,665775.0,0.0,0.0
12:55:01,665374.0,0.0,0.0
12:55:01,665941.0,0.0,0.0
12:55:01,665363.0,0.0,0.0
12:55:01,665684.0,0.0,0.0
12:55:01,665691.0,0.0,0.0
12:55:01,665283.0,0.0,0.0
12:55:01,665861.0,0.0,0.0
12:55:01,665282.0,0.0,0.0
12:55:01,665631.0,0.0,0.0
12:55:01,665648.0,0.0,0.0
12:55:01,665281.0,0.0,0.0
12:55:01,665850.0,0.0,0.0
12:55:01,665267.0,0.0,0.0
12:55:01,665633.0,0.0,0.0
12:55:01,665618.0,0.0,0.0
12:55:01,665257.0,0.0,0.0
12:55:01,665862.0,0.0,0.0
12:55:01,665269.0,0.0,0.0
12:55:01,665654.0,0.0,0.0
12:55:01,665644.0,0.0,0.0
12:55:01,665308.0,0.0,0.0
12:55:02,665861.0,0.0,0.0
12:55:02,665223.0,0.0,0.0
12:55:02,665559.0,0.0,0.0
12:55:02,665516.0,0.0,0.0
12:55:02,665196.0,0.0,0.0
12:55:02,665761.0,0.0,0.0
12:55:02,665149.0,0.0,0.0
12:55:02,665491.0,0.0,0.0
12:55:02,665461.0,0.0,0.0
12:55:02,665129.0,0.0,0.0
12:55:02,665680.0,0.0,0.0
12:55:02,665039.0,0.0,0.0
12:55:02,665433.0,0.0,0.0
12:55:02,665405.0,0.0,0.0
12:55:02,665096.0,0.0,0.0
12:55:02,665623.0,0.0,0.0
12:55:02,665006.0,0.0,0.0
12:55:02,665402.0,0.0,0.0
12:55:02,665354.0,0.0,0.0
12:55:02,665028.0,0.0,0.0
12:55:02,665556.0,0.0,0.0
12:55:02,664980.0,0.0,0.0
12:55:02,665378.0,0.0,0.0
12:55:02,665310.0,0.0,0.0
12:55:02,665006.0,0.0,0.0
12:55:02,665569.0,0.0,0.0
12:55:02,664974.0,0.0,0.0
12:55:02,665371.0,0.0,0.0
12:55:02,665303.0,0.0,0.0
12:55:02,665000.0,0.0,0.0
12:55:02,665523.0,0.0,0.0
12:55:02,664907.0,0.0,0.0
12:55:02,665329.0,0.0,0.0
12:55:02,665273.0,0.0,0.0
12:55:02,664969.0,0.0,0.0
12:55:02,665479.0,0.0,0.0
12:55:02,664854.0,0.0,0.0
12:55:02,665281.0,0.0,0.0
12:55:02,665208.0,0.0,0.0
12:55:02,664926.0,0.0,0.0
12:55:02,665444.0,0.0,0.0
12:55:02,664839.0,0.0,0.0
12:55:02,665248.0,0.0,0.0
12:55:02,665145.0,0.0,0.0
12:55:02,664881.0,0.0,0.0
12:55:02,665386.0,0.0,0.0
12:55:02,664804.0,0.0,0.0
12:55:02,665236.0,0.0,0.0
12:55:02,665119.0,0.0,0.0
12:55:02,664848.0,0.0,0.0
12:55:02,665399.0,0.0,0.0
12:55:02,664812.0,0.0,0.0
12:55:02,665235.0,0.0,0.0
12:55:02,665092.0,0.0,0.0
12:55:02,664827.0,0.0,0.0
12:55:02,665346.0,0.0,0.0
12:55:02,664766.0,0.0,0.0
12:55:02,665221.0,0.0,0.0
12:55:02,665093.0,0.0,0.0
12:55:02,664846.0,0.0,0.0
12:55:02,665340.0,0.0,0.0
12:55:02,664732.0,0.0,0.0
12:55:02,665206.0,0.0,0.0
12:55:02,665075.0,0.0,0.0
12:55:02,664845.0,0.0,0.0
12:55:02,665324.0,0.0,0.0
12:55:02,664724.0,0.0,0.0
12:55:02,665171.0,0.0,0.0
12:55:02,664991.0,0.0,0.0
12:55:02,664707.0,0.0,0.0
12:55:02,665179.0,0.0,0.0
12:55:02,664636.0,0.0,0.0
12:55:02,665250.0,0.0,0.0
12:55:02,665211.0,0.0,0.0
12:55:02,665012.0,0.0,0.0
12:55:02,665414.0,0.0,0.0
12:55:02,664629.0,0.0,0.0
12:55:02,665032.0,0.0,0.0
12:55:02,664894.0,0.0,0.0
12:55:02,664684.0,0.0,0.0
12:55:02,665191.0,0.0,0.0
12:55:02,664569.0,0.0,0.0
12:55:02,665044.0,0.0,0.0
12:55:02,664857.0,0.0,0.0
12:55:02,664639.0,0.0,0.0
12:55:02,665109.0,0.0,0.0
12:55:02,664486.0,0.0,0.0
12:55:02,664931.0,0.0,0.0
12:55:02,664751.0,0.0,0.0
12:55:02,664543.0,0.0,0.0
12:55:02,664987.0,0.0,0.0
12:55:02,664361.0,0.0,0.0
12:55:02,664830.0,0.0,0.0
12:55:02,664662.0,0.0,0.0
12:55:02,664470.0,0.0,0.0
12:55:02,664937.0,0.0,0.0
12:55:02,664311.0,0.0,0.0
12:55:02,664792.0,0.0,0.0
12:55:02,664596.0,0.0,0.0
12:55:02,664418.0,0.0,0.0
12:55:02,664900.0,0.0,0.0
12:55:02,664311.0,0.0,0.0
12:55:02,664789.0,0.0,0.0
12:55:02,664586.0,0.0,0.0
12:55:02,664430.0,0.0,0.0
12:55:02,664876.0,0.0,0.0
12:55:02,664298.0,0.0,0.0
12:55:02,664800.0,0.0,0.0
12:55:02,664606.0,0.0,0.0
12:55:02,664438.0,0.0,0.0
12:55:02,664886.0,0.0,0.0
12:55:02,664314.0,0.0,0.0
12:55:02,664809.0,0.0,0.0
12:55:02,664576.0,0.0,0.0
12:55:02,664408.0,0.0,0.0
12:55:02,664860.0,0.0,0.0
12:55:02,664244.0,0.0,0.0
12:55:02,664718.0,0.0,0.0
12:55:02,664468.0,0.0,0.0
12:55:02,664329.0,0.0,0.0
12:55:02,664777.0,0.0,0.0
12:55:02,664170.0,0.0,0.0
12:55:02,664656.0,0.0,0.0
12:55:02,664405.0,0.0,0.0
12:55:02,664291.0,0.0,0.0
12:55:03,664730.0,0.0,0.0
12:55:03,664129.0,0.0,0.0
12:55:03,664623.0,0.0,0.0
12:55:03,664369.0,0.0,0.0
12:55:03,664259.0,0.0,0.0
12:55:03,664685.0,0.0,0.0
12:55:03,664086.0,0.0,0.0
12:55:03,664601.0,0.0,0.0
12:55:03,664353.0,0.0,0.0
12:55:03,664208.0,0.0,0.0
12:55:03,664628.0,0.0,0.0
12:55:03,664039.0,0.0,0.0
12:55:03,664551.0,0.0,0.0
12:55:03,664318.0,0.0,0.0
12:55:03,664214.0,0.0,0.0
12:55:03,664628.0,0.0,0.0
12:55:03,664041.0,0.0,0.0
12:55:03,664580.0,0.0,0.0
12:55:03,664306.0,0.0,0.0
12:55:03,664234.0,0.0,0.0
12:55:03,664636.0,0.0,0.0
12:55:03,664017.0,0.0,0.0
12:55:03,664564.0,0.0,0.0
12:55:03,664304.0,0.0,0.0
12:55:03,664211.0,0.0,0.0
12:55:03,664613.0,0.0,0.0
12:55:03,663998.0,0.0,0.0
12:55:03,664537.0,0.0,0.0
12:55:03,664243.0,0.0,0.0
12:55:03,664152.0,0.0,0.0
12:55:03,664545.0,0.0,0.0
12:55:03,663960.0,0.0,0.0
12:55:03,664468.0,0.0,0.0
12:55:03,664209.0,0.0,0.0
12:55:03,664143.0,0.0,0.0
12:55:03,664526.0,0.0,0.0
12:55:03,663964.0,0.0,0.0
12:55:03,664486.0,0.0,0.0
12:55:03,664163.0,0.0,0.0
12:55:03,664104.0,0.0,0.0
12:55:03,664499.0,0.0,0.0
12:55:03,663908.0,0.0,0.0
12:55:03,664451.0,0.0,0.0
12:55:03,664158.0,0.0,0.0
12:55:03,664108.0,0.0,0.0
12:55:03,664458.0,0.0,0.0
12:55:03,663901.0,0.0,0.0
12:55:03,664452.0,0.0,0.0
12:55:03,664110.0,0.0,0.0
12:55:03,664053.0,0.0,0.0
12:55:03,664428.0,0.0,0.0
12:55:03,663843.0,0.0,0.0
12:55:03,664434.0,0.0,0.0
12:55:03,664118.0,0.0,0.0
12:55:03,664086.0,0.0,0.0
12:55:03,664457.0,0.0,0.0
12:55:03,663874.0,0.0,0.0
12:55:03,664431.0,0.0,0.0
12:55:03,664074.0,0.0,0.0
12:55:03,663995.0,0.0,0.0
12:55:03,664314.0,0.0,0.0
12:55:03,663760.0,0.0,0.0
12:55:03,664422.0,0.0,0.0
12:55:03,664235.0,0.0,0.0
12:55:03,664321.0,0.0,0.0
12:55:03,664643.0,0.0,0.0
12:55:03,663863.0,0.0,0.0
12:55:03,664287.0,0.0,0.0
12:55:03,663926.0,0.0,0.0
12:55:03,663934.0,0.0,0.0
12:55:03,664299.0,0.0,0.0
12:55:03,663721.0,0.0,0.0
12:55:03,664275.0,0.0,0.0
12:55:03,663912.0,0.0,0.0
12:55:03,663923.0,0.0,0.0
12:55:03,664244.0,0.0,0.0
12:55:03,663646.0,0.0,0.0
12:55:03,664171.0,0.0,0.0
12:55:03,663824.0,0.0,0.0
12:55:03,663827.0,0.0,0.0
12:55:03,664164.0,0.0,0.0
12:55:03,663574.0,0.0,0.0
12:55:03,664078.0,0.0,0.0
12:55:03,663719.0,0.0,0.0
12:55:03,663740.0,0.0,0.0
12:55:03,664051.0,0.0,0.0
12:55:03,663478.0,0.0,0.0
12:55:03,664046.0,0.0,0.0
12:55:03,663649.0,0.0,0.0
12:55:03,663698.0,0.0,0.0
12:55:03,664018.0,0.0,0.0
12:55:03,663419.0,0.0,0.0
12:55:03,663990.0,0.0,0.0
12:55:03,663622.0,0.0,0.0
12:55:03,663663.0,0.0,0.0
12:55:03,663991.0,0.0,0.0
12:55:03,663460.0,0.0,0.0
12:55:03,664042.0,0.0,0.0
12:55:03,663669.0,0.0,0.0
12:55:03,663718.0,0.0,0.0
12:55:03,664021.0,0.0,0.0
12:55:03,663471.0,0.0,0.0
12:55:03,664048.0,0.0,0.0
12:55:03,663658.0,0.0,0.0
12:55:03,663694.0,0.0,0.0
12:55:03,663959.0,0.0,0.0
12:55:03,663416.0,0.0,0.0
12:55:03,664013.0,0.0,0.0
12:55:03,663594.0,0.0,0.0
12:55:03,663671.0,0.0,0.0
12:55:03,663944.0,0.0,0.0
12:55:03,663376.0,0.0,0.0
12:55:03,663934.0,0.0,0.0
12:55:03,663529.0,0.0,0.0
12:55:03,663597.0,0.0,0.0
12:55:03,663874.0,0.0,0.0
12:55:03,663357.0,0.0,0.0
12:55:03,663929.0,0.0,0.0
12:55:03,663513.0,0.0,0.0
12:55:03,663558.0,0.0,0.0
12:55:03,663829.0,0.0,0.0
12:55:03,663341.0,0.0,0.0
12:55:03,663902.0,0.0,0.0
12:55:03,663455.0,0.0,0.0
12:55:04,663538.0,0.0,0.0
12:55:04,663803.0,0.0,0.0
12:55:04,663269.0,0.0,0.0
12:55:04,663851.0,0.0,0.0
12:55:04,663434.0,0.0,0.0
12:55:04,663531.0,0.0,0.0
12:55:04,663776.0,0.0,0.0
12:55:04,663283.0,0.0,0.0
12:55:04,663825.0,0.0,0.0
12:55:04,663431.0,0.0,0.0
12:55:04,663527.0,0.0,0.0
12:55:04,663760.0,0.0,0.0
12:55:04,663252.0,0.0,0.0
12:55:04,663859.0,0.0,0.0
12:55:04,663437.0,0.0,0.0
12:55:04,663538.0,0.0,0.0
12:55:04,663770.0,0.0,0.0
12:55:04,663258.0,0.0,0.0
12:55:04,663838.0,0.0,0.0
12:55:04,663419.0,0.0,0.0
12:55:04,663517.0,0.0,0.0
12:55:04,663723.0,0.0,0.0
12:55:04,663224.0,0.0,0.0
12:55:04,663791.0,0.0,0.0
12:55:04,663357.0,0.0,0.0
12:55:04,663489.0,0.0,0.0
12:55:04,663679.0,0.0,0.0
12:55:04,663173.0,0.0,0.0
12:55:04,663748.0,0.0,0.0
12:55:04,663293.0,0.0,0.0
12:55:04,663426.0,0.0,0.0
12:55:04,663635.0,0.0,0.0
12:55:04,663153.0,0.0,0.0
12:55:04,663701.0,0.0,0.0
12:55:04,663271.0,0.0,0.0
12:55:04,663399.0,0.0,0.0
12:55:04,663561.0,0.0,0.0
12:55:04,663063.0,0.0,0.0
12:55:04,663627.0,0.0,0.0
12:55:04,663187.0,0.0,0.0
12:55:04,663346.0,0.0,0.0
12:55:04,663538.0,0.0,0.0
12:55:04,663067.0,0.0,0.0
12:55:04,663629.0,0.0,0.0
12:55:04,663169.0,0.0,0.0
12:55:04,663362.0,0.0,0.0
12:55:04,663557.0,0.0,0.0
12:55:04,663047.0,0.0,0.0
12:55:04,663631.0,0.0,0.0
12:55:04,663113.0,0.0,0.0
12:55:04,663259.0,0.0,0.0
12:55:04,663410.0,0.0,0.0
12:55:04,662894.0,0.0,0.0
12:55:04,663478.0,0.0,0.0
12:55:04,663123.0,0.0,0.0
12:55:04,663476.0,0.0,0.0
12:55:04,663754.0,0.0,0.0
12:55:04,663187.0,0.0,0.0
12:55:04,663552.0,0.0,0.0
12:55:04,662990.0,0.0,0.0
12:55:04,663131.0,0.0,0.0
12:55:04,663303.0,0.0,0.0
12:55:04,662894.0,0.0,0.0
12:55:04,663472.0,0.0,0.0
12:55:04,662963.0,0.0,0.0
12:55:04,663166.0,0.0,0.0
12:55:04,663316.0,0.0,0.0
12:55:04,662829.0,0.0,0.0
12:55:04,663424.0,0.0,0.0
12:55:04,662939.0,0.0,0.0
12:55:04,663106.0,0.0,0.0
12:55:04,663228.0,0.0,0.0
12:55:04,662746.0,0.0,0.0
12:55:04,663294.0,0.0,0.0
12:55:04,662778.0,0.0,0.0
12:55:04,662979.0,0.0,0.0
12:55:04,663128.0,0.0,0.0
12:55:04,662664.0,0.0,0.0
12:55:04,663249.0,0.0,0.0
12:55:04,662734.0,0.0,0.0
12:55:04,662942.0,0.0,0.0
12:55:04,663064.0,0.0,0.0
12:55:04,662604.0,0.0,0.0
12:55:04,663164.0,0.0,0.0
12:55:04,662676.0,0.0,0.0
12:55:04,662906.0,0.0,0.0
12:55:04,663026.0,0.0,0.0
12:55:04,662598.0,0.0,0.0
12:55:04,663176.0,0.0,0.0
12:55:04,662694.0,0.0,0.0
12:55:04,662931.0,0.0,0.0
12:55:04,663029.0,0.0,0.0
12:55:04,662608.0,0.0,0.0
12:55:04,663211.0,0.0,0.0
12:55:04,662689.0,0.0,0.0
12:55:04,662911.0,0.0,0.0
12:55:04,663033.0,0.0,0.0
12:55:04,662598.0,0.0,0.0
12:55:04,663126.0,0.0,0.0
12:55:04,662614.0,0.0,0.0
12:55:04,662869.0,0.0,0.0
12:55:04,662939.0,0.0,0.0
12:55:04,662515.0,0.0,0.0
12:55:04,663112.0,0.0,0.0
12:55:04,662594.0,0.0,0.0
12:55:04,662866.0,0.0,0.0
12:55:04,662949.0,0.0,0.0
12:55:04,662504.0,0.0,0.0
12:55:04,663094.0,0.0,0.0
12:55:04,662576.0,0.0,0.0
12:55:04,662852.0,0.0,0.0
12:55:04,662915.0,0.0,0.0
12:55:04,662535.0,0.0,0.0
12:55:04,663139.0,0.0,0.0
12:55:04,662626.0,0.0,0.0
12:55:04,662875.0,0.0,0.0
12:55:04,662959.0,0.0,0.0
12:55:04,662546.0,0.0,0.0
12:55:04,663109.0,0.0,0.0
12:55:04,662608.0,0.0,0.0
12:55:04,662896.0,0.0,0.0
12:55:04,662970.0,0.0,0.0
12:55:04,662615.0,0.0,0.0
12:55:04,663168.0,0.0,0.0
12:55:04,662616.0,0.0,0.0
12:55:05,662942.0,0.0,0.0
12:55:05,662995.0,0.0,0.0
12:55:05,662614.0,0.0,0.0
12:55:05,663195.0,0.0,0.0
12:55:05,662681.0,0.0,0.0
12:55:05,663005.0,0.0,0.0
12:55:05,663059.0,0.0,0.0
12:55:05,662682.0,0.0,0.0
12:55:05,663229.0,0.0,0.0
12:55:05,662709.0,0.0,0.0
12:55:05,663040.0,0.0,0.0
12:55:05,663082.0,0.0,0.0
12:55:05,662717.0,0.0,0.0
12:55:05,663314.0,0.0,0.0
12:55:05,662785.0,0.0,0.0
12:55:05,663099.0,0.0,0.0
12:55:05,663101.0,0.0,0.0
12:55:05,662742.0,0.0,0.0
12:55:05,663331.0,0.0,0.0
12:55:05,662776.0,0.0,0.0
12:55:05,663103.0,0.0,0.0
12:55:05,663138.0,0.0,0.0
12:55:05,662784.0,0.0,0.0
12:55:05,663356.0,0.0,0.0
12:55:05,662826.0,0.0,0.0
12:55:05,663174.0,0.0,0.0
12:55:05,663164.0,0.0,0.0
12:55:05,662820.0,0.0,0.0
12:55:05,663395.0,0.0,0.0
12:55:05,662873.0,0.0,0.0
12:55:05,663216.0,0.0,0.0
12:55:05,663213.0,0.0,0.0
12:55:05,662903.0,0.0,0.0
12:55:05,663461.0,0.0,0.0
12:55:05,662895.0,0.0,0.0
12:55:05,663263.0,0.0,0.0
12:55:05,663250.0,0.0,0.0
12:55:05,662946.0,0.0,0.0
12:55:05,663479.0,0.0,0.0
12:55:05,662931.0,0.0,0.0
12:55:05,663271.0,0.0,0.0
12:55:05,663219.0,0.0,0.0
12:55:05,662873.0,0.0,0.0
12:55:05,663436.0,0.0,0.0
12:55:05,663005.0,0.0,0.0
12:55:05,663516.0,0.0,0.0
12:55:05,663561.0,0.0,0.0
12:55:05,663167.0,0.0,0.0
12:55:05,663564.0,0.0,0.0
12:55:05,662908.0,0.0,0.0
12:55:05,663291.0,0.0,0.0
12:55:05,663286.0,0.0,0.0
12:55:05,662994.0,0.0,0.0
12:55:05,663559.0,0.0,0.0
12:55:05,663013.0,0.0,0.0
12:55:05,663387.0,0.0,0.0
12:55:05,663311.0,0.0,0.0
12:55:05,662995.0,0.0,0.0
12:55:05,663549.0,0.0,0.0
12:55:05,662928.0,0.0,0.0
12:55:05,663333.0,0.0,0.0
12:55:05,663291.0,0.0,0.0
12:55:05,662942.0,0.0,0.0
12:55:05,663483.0,0.0,0.0
12:55:05,662889.0,0.0,0.0
12:55:05,663284.0,0.0,0.0
12:55:05,663239.0,0.0,0.0
12:55:05,662952.0,0.0,0.0
12:55:05,663476.0,0.0,0.0
12:55:05,662875.0,0.0,0.0
12:55:05,663284.0,0.0,0.0
