TimeStramp,ECG,SpO2,Respiration
12:05:00,782759.0,0.0,0.0
12:05:00,780071.0,0.0,0.0
12:05:00,782864.0,0.0,0.0
12:05:00,780963.0,0.0,0.0
12:05:00,781118.0,0.0,0.0
12:05:00,782548.0,0.0,0.0
12:05:00,779883.0,0.0,0.0
12:05:00,782719.0,0.0,0.0
12:05:00,780909.0,0.0,0.0
12:05:00,781120.0,0.0,0.0
12:05:00,782579.0,0.0,0.0
12:05:00,779987.0,0.0,0.0
12:05:00,782683.0,0.0,0.0
12:05:00,780959.0,0.0,0.0
12:05:00,781158.0,0.0,0.0
12:05:00,782583.0,0.0,0.0
12:05:00,780136.0,0.0,0.0
12:05:00,782776.0,0.0,0.0
12:05:00,781073.0,0.0,0.0
12:05:00,781314.0,0.0,0.0
12:05:00,782769.0,0.0,0.0
12:05:00,780324.0,0.0,0.0
12:05:00,782989.0,0.0,0.0
12:05:00,781081.0,0.0,0.0
12:05:00,781364.0,0.0,0.0
12:05:00,782612.0,0.0,0.0
12:05:00,780103.0,0.0,0.0
12:05:00,782786.0,0.0,0.0
12:05:00,780772.0,0.0,0.0
12:05:00,781191.0,0.0,0.0
12:05:00,782391.0,0.0,0.0
12:05:00,779909.0,0.0,0.0
12:05:00,782724.0,0.0,0.0
12:05:00,780766.0,0.0,0.0
12:05:00,781384.0,0.0,0.0
12:05:00,782811.0,0.0,0.0
12:05:00,780292.0,0.0,0.0
12:05:00,783119.0,0.0,0.0
12:05:00,781134.0,0.0,0.0
12:05:00,781780.0,0.0,0.0
12:05:00,783063.0,0.0,0.0
12:05:00,780597.0,0.0,0.0
12:05:00,783483.0,0.0,0.0
12:05:00,781448.0,0.0,0.0
12:05:00,782018.0,0.0,0.0
12:05:00,783301.0,0.0,0.0
12:05:00,780802.0,0.0,0.0
12:05:00,783696.0,0.0,0.0
12:05:00,781670.0,0.0,0.0
12:05:00,782242.0,0.0,0.0
12:05:00,783528.0,0.0,0.0
12:05:00,781106.0,0.0,0.0
12:05:00,784037.0,0.0,0.0
12:05:00,782010.0,0.0,0.0
12:05:00,782551.0,0.0,0.0
12:05:00,783823.0,0.0,0.0
12:05:00,781332.0,0.0,0.0
12:05:00,784176.0,0.0,0.0
12:05:00,782052.0,0.0,0.0
12:05:00,782548.0,0.0,0.0
12:05:00,783743.0,0.0,0.0
12:05:00,781303.0,0.0,0.0
12:05:00,784093.0,0.0,0.0
12:05:00,781981.0,0.0,0.0
12:05:00,782570.0,0.0,0.0
12:05:00,783751.0,0.0,0.0
12:05:00,781337.0,0.0,0.0
12:05:00,784137.0,0.0,0.0
12:05:00,782010.0,0.0,0.0
12:05:00,782573.0,0.0,0.0
12:05:00,783733.0,0.0,0.0
12:05:00,781256.0,0.0,0.0
12:05:00,784002.0,0.0,0.0
12:05:00,781971.0,0.0,0.0
12:05:00,782491.0,0.0,0.0
12:05:00,783654.0,0.0,0.0
12:05:00,781231.0,0.0,0.0
12:05:00,783961.0,0.0,0.0
12:05:00,781960.0,0.0,0.0
12:05:00,782444.0,0.0,0.0
12:05:00,783574.0,0.0,0.0
12:05:00,781181.0,0.0,0.0
12:05:00,783803.0,0.0,0.0
12:05:00,781826.0,0.0,0.0
12:05:00,782371.0,0.0,0.0
12:05:00,783464.0,0.0,0.0
12:05:00,781066.0,0.0,0.0
12:05:00,783767.0,0.0,0.0
12:05:00,781699.0,0.0,0.0
12:05:00,782216.0,0.0,0.0
12:05:00,783294.0,0.0,0.0
12:05:00,780958.0,0.0,0.0
12:05:00,783682.0,0.0,0.0
12:05:00,781568.0,0.0,0.0
12:05:00,782161.0,0.0,0.0
12:05:00,783212.0,0.0,0.0
12:05:00,780857.0,0.0,0.0
12:05:00,783596.0,0.0,0.0
12:05:00,781482.0,0.0,0.0
12:05:00,782135.0,0.0,0.0
12:05:00,783190.0,0.0,0.0
12:05:00,780823.0,0.0,0.0
12:05:00,783541.0,0.0,0.0
12:05:00,781432.0,0.0,0.0
12:05:00,782091.0,0.0,0.0
12:05:00,783163.0,0.0,0.0
12:05:00,780780.0,0.0,0.0
12:05:00,783531.0,0.0,0.0
12:05:00,781421.0,0.0,0.0
12:05:00,782011.0,0.0,0.0
12:05:00,783112.0,0.0,0.0
12:05:00,780704.0,0.0,0.0
12:05:00,783385.0,0.0,0.0
12:05:00,781307.0,0.0,0.0
12:05:00,781844.0,0.0,0.0
12:05:00,782933.0,0.0,0.0
12:05:00,780533.0,0.0,0.0
12:05:00,783231.0,0.0,0.0
12:05:00,781196.0,0.0,0.0
12:05:00,781741.0,0.0,0.0
12:05:00,782829.0,0.0,0.0
12:05:00,780459.0,0.0,0.0
12:05:00,783133.0,0.0,0.0
12:05:00,781226.0,0.0,0.0
12:05:00,781919.0,0.0,0.0
12:05:01,783248.0,0.0,0.0
12:05:01,780893.0,0.0,0.0
12:05:01,783503.0,0.0,0.0
12:05:01,781613.0,0.0,0.0
12:05:01,782184.0,0.0,0.0
12:05:01,783369.0,0.0,0.0
12:05:01,781149.0,0.0,0.0
12:05:01,783769.0,0.0,0.0
12:05:01,781906.0,0.0,0.0
12:05:01,782389.0,0.0,0.0
12:05:01,783451.0,0.0,0.0
12:05:01,781133.0,0.0,0.0
12:05:01,783592.0,0.0,0.0
12:05:01,781620.0,0.0,0.0
12:05:01,782013.0,0.0,0.0
12:05:01,783014.0,0.0,0.0
12:05:01,780699.0,0.0,0.0
12:05:01,783174.0,0.0,0.0
12:05:01,781217.0,0.0,0.0
12:05:01,781703.0,0.0,0.0
12:05:01,782738.0,0.0,0.0
12:05:01,780499.0,0.0,0.0
12:05:01,783015.0,0.0,0.0
12:05:01,781135.0,0.0,0.0
12:05:01,781636.0,0.0,0.0
12:05:01,782699.0,0.0,0.0
12:05:01,780502.0,0.0,0.0
12:05:01,783076.0,0.0,0.0
12:05:01,781176.0,0.0,0.0
12:05:01,781753.0,0.0,0.0
12:05:01,782800.0,0.0,0.0
12:05:01,780605.0,0.0,0.0
12:05:01,783206.0,0.0,0.0
12:05:01,781263.0,0.0,0.0
12:05:01,781849.0,0.0,0.0
12:05:01,782925.0,0.0,0.0
12:05:01,780723.0,0.0,0.0
12:05:01,783289.0,0.0,0.0
12:05:01,781344.0,0.0,0.0
12:05:01,781878.0,0.0,0.0
12:05:01,782913.0,0.0,0.0
12:05:01,780699.0,0.0,0.0
12:05:01,783295.0,0.0,0.0
12:05:01,781324.0,0.0,0.0
12:05:01,781875.0,0.0,0.0
12:05:01,782906.0,0.0,0.0
12:05:01,780612.0,0.0,0.0
12:05:01,783221.0,0.0,0.0
12:05:01,781238.0,0.0,0.0
12:05:01,781809.0,0.0,0.0
12:05:01,782819.0,0.0,0.0
12:05:01,780564.0,0.0,0.0
12:05:01,783158.0,0.0,0.0
12:05:01,781186.0,0.0,0.0
12:05:01,781775.0,0.0,0.0
12:05:01,782820.0,0.0,0.0
12:05:01,780616.0,0.0,0.0
12:05:01,783191.0,0.0,0.0
12:05:01,781208.0,0.0,0.0
12:05:01,781813.0,0.0,0.0
12:05:01,782836.0,0.0,0.0
12:05:01,780597.0,0.0,0.0
12:05:01,783214.0,0.0,0.0
12:05:01,781205.0,0.0,0.0
12:05:01,781847.0,0.0,0.0
12:05:01,782886.0,0.0,0.0
12:05:01,780678.0,0.0,0.0
12:05:01,783255.0,0.0,0.0
12:05:01,781242.0,0.0,0.0
12:05:01,781888.0,0.0,0.0
12:05:01,782896.0,0.0,0.0
12:05:01,780684.0,0.0,0.0
12:05:01,783356.0,0.0,0.0
12:05:01,781328.0,0.0,0.0
12:05:01,782019.0,0.0,0.0
12:05:01,783007.0,0.0,0.0
12:05:01,780766.0,0.0,0.0
12:05:01,783412.0,0.0,0.0
12:05:01,781344.0,0.0,0.0
12:05:01,782009.0,0.0,0.0
12:05:01,782986.0,0.0,0.0
12:05:01,780794.0,0.0,0.0
12:05:01,783457.0,0.0,0.0
12:05:01,781410.0,0.0,0.0
12:05:01,782051.0,0.0,0.0
12:05:01,782993.0,0.0,0.0
12:05:01,780788.0,0.0,0.0
12:05:01,783471.0,0.0,0.0
12:05:01,781536.0,0.0,0.0
12:05:01,782358.0,0.0,0.0
12:05:01,783279.0,0.0,0.0
12:05:01,780958.0,0.0,0.0
12:05:01,783578.0,0.0,0.0
12:05:01,781491.0,0.0,0.0
12:05:01,782178.0,0.0,0.0
12:05:01,783114.0,0.0,0.0
12:05:01,780846.0,0.0,0.0
12:05:01,783447.0,0.0,0.0
12:05:01,781347.0,0.0,0.0
12:05:01,782022.0,0.0,0.0
12:05:01,782962.0,0.0,0.0
12:05:01,780659.0,0.0,0.0
12:05:01,783272.0,0.0,0.0
12:05:01,781204.0,0.0,0.0
12:05:01,781921.0,0.0,0.0
12:05:01,782913.0,0.0,0.0
12:05:01,780704.0,0.0,0.0
12:05:01,783348.0,0.0,0.0
12:05:01,781319.0,0.0,0.0
12:05:01,782001.0,0.0,0.0
12:05:01,782966.0,0.0,0.0
12:05:01,780764.0,0.0,0.0
12:05:01,783359.0,0.0,0.0
12:05:01,781324.0,0.0,0.0
12:05:01,782006.0,0.0,0.0
12:05:01,782937.0,0.0,0.0
12:05:01,780712.0,0.0,0.0
12:05:01,783329.0,0.0,0.0
12:05:01,781229.0,0.0,0.0
12:05:01,781883.0,0.0,0.0
12:05:01,782809.0,0.0,0.0
12:05:01,780599.0,0.0,0.0
12:05:01,783247.0,0.0,0.0
12:05:01,781165.0,0.0,0.0
12:05:01,781849.0,0.0,0.0
12:05:02,782745.0,0.0,0.0
12:05:02,780536.0,0.0,0.0
12:05:02,783200.0,0.0,0.0
12:05:02,781107.0,0.0,0.0
12:05:02,781782.0,0.0,0.0
12:05:02,782698.0,0.0,0.0
12:05:02,780457.0,0.0,0.0
12:05:02,783107.0,0.0,0.0
12:05:02,781025.0,0.0,0.0
12:05:02,781710.0,0.0,0.0
12:05:02,782605.0,0.0,0.0
12:05:02,780435.0,0.0,0.0
12:05:02,783092.0,0.0,0.0
12:05:02,781013.0,0.0,0.0
12:05:02,781759.0,0.0,0.0
12:05:02,782690.0,0.0,0.0
12:05:02,780479.0,0.0,0.0
12:05:02,783129.0,0.0,0.0
12:05:02,781063.0,0.0,0.0
12:05:02,781785.0,0.0,0.0
12:05:02,782680.0,0.0,0.0
12:05:02,780466.0,0.0,0.0
12:05:02,783112.0,0.0,0.0
12:05:02,780980.0,0.0,0.0
12:05:02,781671.0,0.0,0.0
12:05:02,782534.0,0.0,0.0
12:05:02,780339.0,0.0,0.0
12:05:02,782945.0,0.0,0.0
12:05:02,780818.0,0.0,0.0
12:05:02,781539.0,0.0,0.0
12:05:02,782487.0,0.0,0.0
12:05:02,780301.0,0.0,0.0
12:05:02,782921.0,0.0,0.0
12:05:02,780806.0,0.0,0.0
12:05:02,781585.0,0.0,0.0
12:05:02,782482.0,0.0,0.0
12:05:02,780298.0,0.0,0.0
12:05:02,782992.0,0.0,0.0
12:05:02,780857.0,0.0,0.0
12:05:02,781635.0,0.0,0.0
12:05:02,782515.0,0.0,0.0
12:05:02,780337.0,0.0,0.0
12:05:02,783048.0,0.0,0.0
12:05:02,780905.0,0.0,0.0
12:05:02,781604.0,0.0,0.0
12:05:02,782419.0,0.0,0.0
12:05:02,780248.0,0.0,0.0
12:05:02,782910.0,0.0,0.0
12:05:02,780826.0,0.0,0.0
12:05:02,781699.0,0.0,0.0
12:05:02,782494.0,0.0,0.0
12:05:02,780201.0,0.0,0.0
12:05:02,782841.0,0.0,0.0
12:05:02,780706.0,0.0,0.0
12:05:02,781515.0,0.0,0.0
12:05:02,782394.0,0.0,0.0
12:05:02,780176.0,0.0,0.0
12:05:02,782826.0,0.0,0.0
12:05:02,780624.0,0.0,0.0
12:05:02,781412.0,0.0,0.0
12:05:02,782246.0,0.0,0.0
12:05:02,780041.0,0.0,0.0
12:05:02,782738.0,0.0,0.0
12:05:02,780529.0,0.0,0.0
12:05:02,781336.0,0.0,0.0
12:05:02,782184.0,0.0,0.0
12:05:02,780023.0,0.0,0.0
12:05:02,782691.0,0.0,0.0
12:05:02,780529.0,0.0,0.0
12:05:02,781328.0,0.0,0.0
12:05:02,782171.0,0.0,0.0
12:05:02,779989.0,0.0,0.0
12:05:02,782673.0,0.0,0.0
12:05:02,780489.0,0.0,0.0
12:05:02,781298.0,0.0,0.0
12:05:02,782176.0,0.0,0.0
12:05:02,779983.0,0.0,0.0
12:05:02,782674.0,0.0,0.0
12:05:02,780487.0,0.0,0.0
12:05:02,781344.0,0.0,0.0
12:05:02,782186.0,0.0,0.0
12:05:02,779988.0,0.0,0.0
12:05:02,782701.0,0.0,0.0
12:05:02,780493.0,0.0,0.0
12:05:02,781282.0,0.0,0.0
12:05:02,782078.0,0.0,0.0
12:05:02,779928.0,0.0,0.0
12:05:02,782630.0,0.0,0.0
12:05:02,780433.0,0.0,0.0
12:05:02,781253.0,0.0,0.0
12:05:02,782061.0,0.0,0.0
12:05:02,779900.0,0.0,0.0
12:05:02,782617.0,0.0,0.0
12:05:02,780413.0,0.0,0.0
12:05:02,781227.0,0.0,0.0
12:05:02,782046.0,0.0,0.0
12:05:02,779879.0,0.0,0.0
12:05:02,782576.0,0.0,0.0
12:05:02,780391.0,0.0,0.0
12:05:02,781224.0,0.0,0.0
12:05:02,782033.0,0.0,0.0
12:05:02,779887.0,0.0,0.0
12:05:02,782551.0,0.0,0.0
12:05:02,780338.0,0.0,0.0
12:05:02,781197.0,0.0,0.0
12:05:02,782044.0,0.0,0.0
12:05:02,779848.0,0.0,0.0
12:05:02,782488.0,0.0,0.0
12:05:02,780293.0,0.0,0.0
12:05:02,781116.0,0.0,0.0
12:05:02,781898.0,0.0,0.0
12:05:02,779781.0,0.0,0.0
12:05:02,782463.0,0.0,0.0
12:05:02,780280.0,0.0,0.0
12:05:02,781162.0,0.0,0.0
12:05:02,782001.0,0.0,0.0
12:05:02,779896.0,0.0,0.0
12:05:02,782552.0,0.0,0.0
12:05:02,780336.0,0.0,0.0
12:05:02,781151.0,0.0,0.0
12:05:02,781889.0,0.0,0.0
12:05:02,779675.0,0.0,0.0
12:05:02,782305.0,0.0,0.0
12:05:02,780056.0,0.0,0.0
12:05:02,780821.0,0.0,0.0
12:05:03,781516.0,0.0,0.0
12:05:03,779316.0,0.0,0.0
12:05:03,781918.0,0.0,0.0
12:05:03,779671.0,0.0,0.0
12:05:03,780452.0,0.0,0.0
12:05:03,781205.0,0.0,0.0
12:05:03,779113.0,0.0,0.0
12:05:03,781861.0,0.0,0.0
12:05:03,779738.0,0.0,0.0
12:05:03,780507.0,0.0,0.0
12:05:03,781213.0,0.0,0.0
12:05:03,779076.0,0.0,0.0
12:05:03,781728.0,0.0,0.0
12:05:03,779482.0,0.0,0.0
12:05:03,780301.0,0.0,0.0
12:05:03,781020.0,0.0,0.0
12:05:03,778824.0,0.0,0.0
12:05:03,781428.0,0.0,0.0
12:05:03,779153.0,0.0,0.0
12:05:03,780005.0,0.0,0.0
12:05:03,780718.0,0.0,0.0
12:05:03,778537.0,0.0,0.0
12:05:03,781249.0,0.0,0.0
12:05:03,779075.0,0.0,0.0
12:05:03,779979.0,0.0,0.0
12:05:03,780734.0,0.0,0.0
12:05:03,778630.0,0.0,0.0
12:05:03,781325.0,0.0,0.0
12:05:03,779074.0,0.0,0.0
12:05:03,779960.0,0.0,0.0
12:05:03,780696.0,0.0,0.0
12:05:03,778579.0,0.0,0.0
12:05:03,781266.0,0.0,0.0
12:05:03,779002.0,0.0,0.0
12:05:03,779915.0,0.0,0.0
12:05:03,780644.0,0.0,0.0
12:05:03,778509.0,0.0,0.0
12:05:03,781199.0,0.0,0.0
12:05:03,778977.0,0.0,0.0
12:05:03,779920.0,0.0,0.0
12:05:03,780734.0,0.0,0.0
12:05:03,778608.0,0.0,0.0
12:05:03,781328.0,0.0,0.0
12:05:03,779080.0,0.0,0.0
12:05:03,780019.0,0.0,0.0
12:05:03,780738.0,0.0,0.0
12:05:03,778581.0,0.0,0.0
12:05:03,781289.0,0.0,0.0
12:05:03,779040.0,0.0,0.0
12:05:03,779951.0,0.0,0.0
12:05:03,780642.0,0.0,0.0
12:05:03,778489.0,0.0,0.0
12:05:03,781174.0,0.0,0.0
12:05:03,778921.0,0.0,0.0
12:05:03,779820.0,0.0,0.0
12:05:03,780576.0,0.0,0.0
12:05:03,778448.0,0.0,0.0
12:05:03,781167.0,0.0,0.0
12:05:03,778918.0,0.0,0.0
12:05:03,779864.0,0.0,0.0
12:05:03,780582.0,0.0,0.0
12:05:03,778467.0,0.0,0.0
12:05:03,781151.0,0.0,0.0
12:05:03,778864.0,0.0,0.0
12:05:03,779819.0,0.0,0.0
12:05:03,780513.0,0.0,0.0
12:05:03,778401.0,0.0,0.0
12:05:03,781076.0,0.0,0.0
12:05:03,778818.0,0.0,0.0
12:05:03,779739.0,0.0,0.0
12:05:03,780439.0,0.0,0.0
12:05:03,778348.0,0.0,0.0
12:05:03,781044.0,0.0,0.0
12:05:03,778814.0,0.0,0.0
12:05:03,779786.0,0.0,0.0
12:05:03,780515.0,0.0,0.0
12:05:03,778401.0,0.0,0.0
12:05:03,781123.0,0.0,0.0
12:05:03,778849.0,0.0,0.0
12:05:03,779763.0,0.0,0.0
12:05:03,780421.0,0.0,0.0
12:05:03,778324.0,0.0,0.0
12:05:03,781006.0,0.0,0.0
12:05:03,778717.0,0.0,0.0
12:05:03,779686.0,0.0,0.0
12:05:03,780387.0,0.0,0.0
12:05:03,778241.0,0.0,0.0
12:05:03,780893.0,0.0,0.0
12:05:03,778589.0,0.0,0.0
12:05:03,779523.0,0.0,0.0
12:05:03,780185.0,0.0,0.0
12:05:03,778111.0,0.0,0.0
12:05:03,780863.0,0.0,0.0
12:05:03,778665.0,0.0,0.0
12:05:03,779516.0,0.0,0.0
12:05:03,780173.0,0.0,0.0
12:05:03,778119.0,0.0,0.0
12:05:03,780810.0,0.0,0.0
12:05:03,778531.0,0.0,0.0
12:05:03,779536.0,0.0,0.0
12:05:03,780237.0,0.0,0.0
12:05:03,778136.0,0.0,0.0
12:05:03,780813.0,0.0,0.0
12:05:03,778515.0,0.0,0.0
12:05:03,779514.0,0.0,0.0
12:05:03,780168.0,0.0,0.0
12:05:03,778103.0,0.0,0.0
12:05:03,780837.0,0.0,0.0
12:05:03,778529.0,0.0,0.0
12:05:03,779536.0,0.0,0.0
12:05:03,780211.0,0.0,0.0
12:05:03,778103.0,0.0,0.0
12:05:03,780749.0,0.0,0.0
12:05:03,778450.0,0.0,0.0
12:05:03,779433.0,0.0,0.0
12:05:03,780048.0,0.0,0.0
12:05:03,777946.0,0.0,0.0
12:05:03,780608.0,0.0,0.0
12:05:03,778306.0,0.0,0.0
12:05:03,779331.0,0.0,0.0
12:05:03,779991.0,0.0,0.0
12:05:03,777904.0,0.0,0.0
12:05:03,780641.0,0.0,0.0
12:05:03,778372.0,0.0,0.0
12:05:03,779392.0,0.0,0.0
12:05:04,780065.0,0.0,0.0
12:05:04,778001.0,0.0,0.0
12:05:04,780673.0,0.0,0.0
12:05:04,778373.0,0.0,0.0
12:05:04,779395.0,0.0,0.0
12:05:04,780063.0,0.0,0.0
12:05:04,778011.0,0.0,0.0
12:05:04,780735.0,0.0,0.0
12:05:04,778461.0,0.0,0.0
12:05:04,779456.0,0.0,0.0
12:05:04,780118.0,0.0,0.0
12:05:04,778108.0,0.0,0.0
12:05:04,780810.0,0.0,0.0
12:05:04,778497.0,0.0,0.0
12:05:04,779533.0,0.0,0.0
12:05:04,780153.0,0.0,0.0
12:05:04,778130.0,0.0,0.0
12:05:04,780837.0,0.0,0.0
12:05:04,778535.0,0.0,0.0
12:05:04,779544.0,0.0,0.0
12:05:04,780188.0,0.0,0.0
12:05:04,778121.0,0.0,0.0
12:05:04,780831.0,0.0,0.0
12:05:04,778525.0,0.0,0.0
12:05:04,779522.0,0.0,0.0
12:05:04,780148.0,0.0,0.0
12:05:04,778076.0,0.0,0.0
12:05:04,780779.0,0.0,0.0
12:05:04,778478.0,0.0,0.0
12:05:04,779483.0,0.0,0.0
12:05:04,780089.0,0.0,0.0
12:05:04,778029.0,0.0,0.0
12:05:04,780747.0,0.0,0.0
12:05:04,778489.0,0.0,0.0
12:05:04,779525.0,0.0,0.0
12:05:04,780196.0,0.0,0.0
12:05:04,778121.0,0.0,0.0
12:05:04,780838.0,0.0,0.0
12:05:04,778490.0,0.0,0.0
12:05:04,779598.0,0.0,0.0
12:05:04,780238.0,0.0,0.0
12:05:04,778174.0,0.0,0.0
12:05:04,780884.0,0.0,0.0
12:05:04,778558.0,0.0,0.0
12:05:04,779599.0,0.0,0.0
12:05:04,780217.0,0.0,0.0
12:05:04,778202.0,0.0,0.0
12:05:04,780873.0,0.0,0.0
12:05:04,778583.0,0.0,0.0
12:05:04,779596.0,0.0,0.0
12:05:04,780155.0,0.0,0.0
12:05:04,778186.0,0.0,0.0
12:05:04,780914.0,0.0,0.0
12:05:04,778658.0,0.0,0.0
12:05:04,779853.0,0.0,0.0
12:05:04,780393.0,0.0,0.0
12:05:04,778258.0,0.0,0.0
12:05:04,780974.0,0.0,0.0
12:05:04,778670.0,0.0,0.0
12:05:04,779728.0,0.0,0.0
12:05:04,780329.0,0.0,0.0
12:05:04,778342.0,0.0,0.0
12:05:04,780995.0,0.0,0.0
12:05:04,778638.0,0.0,0.0
12:05:04,779689.0,0.0,0.0
12:05:04,780269.0,0.0,0.0
12:05:04,778229.0,0.0,0.0
12:05:04,780875.0,0.0,0.0
12:05:04,778535.0,0.0,0.0
12:05:04,779626.0,0.0,0.0
12:05:04,780182.0,0.0,0.0
12:05:04,778170.0,0.0,0.0
12:05:04,780868.0,0.0,0.0
12:05:04,778584.0,0.0,0.0
12:05:04,779625.0,0.0,0.0
12:05:04,780231.0,0.0,0.0
12:05:04,778186.0,0.0,0.0
12:05:04,780831.0,0.0,0.0
12:05:04,778532.0,0.0,0.0
12:05:04,779596.0,0.0,0.0
12:05:04,780193.0,0.0,0.0
12:05:04,778144.0,0.0,0.0
12:05:04,780855.0,0.0,0.0
12:05:04,778543.0,0.0,0.0
12:05:04,779654.0,0.0,0.0
12:05:04,780261.0,0.0,0.0
12:05:04,778238.0,0.0,0.0
12:05:04,780944.0,0.0,0.0
12:05:04,778578.0,0.0,0.0
12:05:04,779644.0,0.0,0.0
12:05:04,780223.0,0.0,0.0
12:05:04,778208.0,0.0,0.0
12:05:04,780882.0,0.0,0.0
12:05:04,778553.0,0.0,0.0
12:05:04,779631.0,0.0,0.0
12:05:04,780211.0,0.0,0.0
12:05:04,778201.0,0.0,0.0
12:05:04,780868.0,0.0,0.0
12:05:04,778555.0,0.0,0.0
12:05:04,779624.0,0.0,0.0
12:05:04,780174.0,0.0,0.0
12:05:04,778162.0,0.0,0.0
12:05:04,780826.0,0.0,0.0
12:05:04,778506.0,0.0,0.0
12:05:04,779626.0,0.0,0.0
12:05:04,780166.0,0.0,0.0
12:05:04,778151.0,0.0,0.0
12:05:04,780803.0,0.0,0.0
12:05:04,778416.0,0.0,0.0
12:05:04,779489.0,0.0,0.0
12:05:04,780043.0,0.0,0.0
12:05:04,778054.0,0.0,0.0
12:05:04,780743.0,0.0,0.0
12:05:04,778390.0,0.0,0.0
12:05:04,779483.0,0.0,0.0
12:05:04,780024.0,0.0,0.0
12:05:04,778029.0,0.0,0.0
12:05:04,780764.0,0.0,0.0
12:05:04,778394.0,0.0,0.0
12:05:04,779504.0,0.0,0.0
12:05:04,780044.0,0.0,0.0
12:05:04,778008.0,0.0,0.0
12:05:04,780691.0,0.0,0.0
12:05:04,778328.0,0.0,0.0
12:05:04,779426.0,0.0,0.0
12:05:05,779999.0,0.0,0.0
12:05:05,778007.0,0.0,0.0
12:05:05,780675.0,0.0,0.0
12:05:05,778293.0,0.0,0.0
12:05:05,779379.0,0.0,0.0
12:05:05,779919.0,0.0,0.0
12:05:05,777922.0,0.0,0.0
12:05:05,780543.0,0.0,0.0
12:05:05,778229.0,0.0,0.0
12:05:05,779401.0,0.0,0.0
12:05:05,780069.0,0.0,0.0
12:05:05,778060.0,0.0,0.0
12:05:05,780658.0,0.0,0.0
12:05:05,778259.0,0.0,0.0
12:05:05,779381.0,0.0,0.0
12:05:05,779920.0,0.0,0.0
12:05:05,777973.0,0.0,0.0
12:05:05,780614.0,0.0,0.0
12:05:05,778221.0,0.0,0.0
12:05:05,779308.0,0.0,0.0
12:05:05,779798.0,0.0,0.0
12:05:05,777807.0,0.0,0.0
12:05:05,780461.0,0.0,0.0
12:05:05,778063.0,0.0,0.0
12:05:05,779165.0,0.0,0.0
12:05:05,779640.0,0.0,0.0
12:05:05,777673.0,0.0,0.0
12:05:05,780344.0,0.0,0.0
12:05:05,777986.0,0.0,0.0
12:05:05,779099.0,0.0,0.0
12:05:05,779606.0,0.0,0.0
12:05:05,777648.0,0.0,0.0
12:05:05,780313.0,0.0,0.0
12:05:05,777941.0,0.0,0.0
12:05:05,779050.0,0.0,0.0
12:05:05,779536.0,0.0,0.0
12:05:05,777585.0,0.0,0.0
12:05:05,780269.0,0.0,0.0
12:05:05,777981.0,0.0,0.0
12:05:05,779121.0,0.0,0.0
12:05:05,779617.0,0.0,0.0
12:05:05,777686.0,0.0,0.0
12:05:05,780374.0,0.0,0.0
12:05:05,777988.0,0.0,0.0
12:05:05,779120.0,0.0,0.0
12:05:05,779609.0,0.0,0.0
12:05:05,777611.0,0.0,0.0
12:05:05,780236.0,0.0,0.0
12:05:05,777867.0,0.0,0.0
12:05:05,779039.0,0.0,0.0
12:05:05,779511.0,0.0,0.0
12:05:05,777514.0,0.0,0.0
12:05:05,780188.0,0.0,0.0
12:05:05,777816.0,0.0,0.0
12:05:05,778991.0,0.0,0.0
12:05:05,779484.0,0.0,0.0
12:05:05,777526.0,0.0,0.0
12:05:05,780180.0,0.0,0.0
12:05:05,777825.0,0.0,0.0
12:05:05,779018.0,0.0,0.0
12:05:05,779507.0,0.0,0.0
12:05:05,777531.0,0.0,0.0
12:05:05,780230.0,0.0,0.0
12:05:05,777846.0,0.0,0.0
12:05:05,779021.0,0.0,0.0
12:05:05,779529.0,0.0,0.0
12:05:05,777619.0,0.0,0.0
12:05:05,780284.0,0.0,0.0
12:05:05,777907.0,0.0,0.0
12:05:05,779148.0,0.0,0.0
12:05:05,779629.0,0.0,0.0
12:05:05,777668.0,0.0,0.0
12:05:05,780323.0,0.0,0.0
12:05:05,777939.0,0.0,0.0
12:05:05,779105.0,0.0,0.0
12:05:05,779603.0,0.0,0.0
12:05:05,777659.0,0.0,0.0
12:05:05,780304.0,0.0,0.0
12:05:05,777939.0,0.0,0.0
12:05:05,779105.0,0.0,0.0
12:05:05,779572.0,0.0,0.0
12:05:05,777615.0,0.0,0.0
12:05:05,780286.0,0.0,0.0
12:05:05,777894.0,0.0,0.0
12:05:05,779038.0,0.0,0.0
12:05:05,779461.0,0.0,0.0
12:05:05,777533.0,0.0,0.0
12:05:05,780172.0,0.0,0.0
12:05:05,777757.0,0.0,0.0
12:05:05,778910.0,0.0,0.0
12:05:05,779370.0,0.0,0.0
12:05:05,777428.0,0.0,0.0
12:05:05,780078.0,0.0,0.0
12:05:05,777684.0,0.0,0.0
12:05:05,778824.0,0.0,0.0
12:05:05,779256.0,0.0,0.0
12:05:05,777344.0,0.0,0.0
12:05:05,780090.0,0.0,0.0
12:05:05,777751.0,0.0,0.0
12:05:05,778802.0,0.0,0.0
12:05:05,779170.0,0.0,0.0
12:05:05,777277.0,0.0,0.0
12:05:05,779949.0,0.0,0.0
12:05:05,777549.0,0.0,0.0
12:05:05,778741.0,0.0,0.0
12:05:05,779191.0,0.0,0.0
12:05:05,777262.0,0.0,0.0
12:05:05,779881.0,0.0,0.0
12:05:05,777499.0,0.0,0.0
12:05:05,778684.0,0.0,0.0
12:05:05,779108.0,0.0,0.0
12:05:05,777183.0,0.0,0.0
12:05:05,779825.0,0.0,0.0
12:05:05,777422.0,0.0,0.0
12:05:05,778609.0,0.0,0.0
12:05:05,779039.0,0.0,0.0
12:05:05,777164.0,0.0,0.0
12:05:05,779822.0,0.0,0.0
12:05:05,777414.0,0.0,0.0
12:05:05,778623.0,0.0,0.0
12:05:05,779031.0,0.0,0.0
12:05:05,777129.0,0.0,0.0
12:05:05,779745.0,0.0,0.0
12:05:05,777337.0,0.0,0.0
12:05:05,778566.0,0.0,0.0
12:05:06,779005.0,0.0,0.0
12:05:06,777152.0,0.0,0.0
12:05:06,779831.0,0.0,0.0
12:05:06,777465.0,0.0,0.0
12:05:06,778693.0,0.0,0.0
12:05:06,779079.0,0.0,0.0
12:05:06,777199.0,0.0,0.0
12:05:06,779896.0,0.0,0.0
12:05:06,777486.0,0.0,0.0
12:05:06,778696.0,0.0,0.0
12:05:06,779113.0,0.0,0.0
12:05:06,777214.0,0.0,0.0
12:05:06,779853.0,0.0,0.0
12:05:06,777430.0,0.0,0.0
12:05:06,778646.0,0.0,0.0
12:05:06,779030.0,0.0,0.0
12:05:06,777167.0,0.0,0.0
12:05:06,779774.0,0.0,0.0
12:05:06,777339.0,0.0,0.0
12:05:06,778558.0,0.0,0.0
12:05:06,778946.0,0.0,0.0
12:05:06,777074.0,0.0,0.0
12:05:06,779694.0,0.0,0.0
12:05:06,777220.0,0.0,0.0
12:05:06,778457.0,0.0,0.0
12:05:06,778861.0,0.0,0.0
12:05:06,776986.0,0.0,0.0
12:05:06,779608.0,0.0,0.0
12:05:06,777179.0,0.0,0.0
12:05:06,778411.0,0.0,0.0
12:05:06,778776.0,0.0,0.0
12:05:06,776920.0,0.0,0.0
12:05:06,779561.0,0.0,0.0
12:05:06,777156.0,0.0,0.0
12:05:06,778417.0,0.0,0.0
12:05:06,778779.0,0.0,0.0
12:05:06,776971.0,0.0,0.0
12:05:06,779603.0,0.0,0.0
12:05:06,777177.0,0.0,0.0
12:05:06,778436.0,0.0,0.0
12:05:06,778766.0,0.0,0.0
12:05:06,776914.0,0.0,0.0
12:05:06,779581.0,0.0,0.0
12:05:06,777118.0,0.0,0.0
12:05:06,778378.0,0.0,0.0
12:05:06,778764.0,0.0,0.0
12:05:06,776914.0,0.0,0.0
12:05:06,779556.0,0.0,0.0
12:05:06,777149.0,0.0,0.0
12:05:06,778406.0,0.0,0.0
12:05:06,778721.0,0.0,0.0
12:05:06,776873.0,0.0,0.0
12:05:06,779520.0,0.0,0.0
12:05:06,777061.0,0.0,0.0
12:05:06,778319.0,0.0,0.0
12:05:06,778689.0,0.0,0.0
12:05:06,776863.0,0.0,0.0
12:05:06,779455.0,0.0,0.0
12:05:06,777036.0,0.0,0.0
12:05:06,778269.0,0.0,0.0
12:05:06,778607.0,0.0,0.0
12:05:06,776837.0,0.0,0.0
12:05:06,779508.0,0.0,0.0
12:05:06,777108.0,0.0,0.0
12:05:06,778307.0,0.0,0.0
12:05:06,778608.0,0.0,0.0
12:05:06,776775.0,0.0,0.0
12:05:06,779379.0,0.0,0.0
12:05:06,776926.0,0.0,0.0
12:05:06,778179.0,0.0,0.0
12:05:06,778531.0,0.0,0.0
12:05:06,776716.0,0.0,0.0
12:05:06,779320.0,0.0,0.0
12:05:06,776868.0,0.0,0.0
12:05:06,778169.0,0.0,0.0
12:05:06,778489.0,0.0,0.0
12:05:06,776639.0,0.0,0.0
12:05:06,779236.0,0.0,0.0
12:05:06,776813.0,0.0,0.0
12:05:06,778111.0,0.0,0.0
12:05:06,778400.0,0.0,0.0
12:05:06,776587.0,0.0,0.0
12:05:06,779201.0,0.0,0.0
12:05:06,776786.0,0.0,0.0
12:05:06,778106.0,0.0,0.0
12:05:06,778421.0,0.0,0.0
12:05:06,776638.0,0.0,0.0
12:05:06,779258.0,0.0,0.0
12:05:06,776832.0,0.0,0.0
12:05:06,778142.0,0.0,0.0
12:05:06,778448.0,0.0,0.0
12:05:06,776647.0,0.0,0.0
12:05:06,779255.0,0.0,0.0
12:05:06,776766.0,0.0,0.0
12:05:06,778088.0,0.0,0.0
12:05:06,778376.0,0.0,0.0
12:05:06,776593.0,0.0,0.0
12:05:06,779186.0,0.0,0.0
12:05:06,776710.0,0.0,0.0
12:05:06,778021.0,0.0,0.0
12:05:06,778323.0,0.0,0.0
12:05:06,776493.0,0.0,0.0
12:05:06,779115.0,0.0,0.0
12:05:06,776633.0,0.0,0.0
12:05:06,777951.0,0.0,0.0
12:05:06,778209.0,0.0,0.0
12:05:06,776411.0,0.0,0.0
12:05:06,779002.0,0.0,0.0
12:05:06,776544.0,0.0,0.0
12:05:06,777906.0,0.0,0.0
12:05:06,778144.0,0.0,0.0
12:05:06,776339.0,0.0,0.0
12:05:06,778944.0,0.0,0.0
12:05:06,776486.0,0.0,0.0
12:05:06,777846.0,0.0,0.0
12:05:06,778116.0,0.0,0.0
12:05:06,776330.0,0.0,0.0
12:05:06,778932.0,0.0,0.0
12:05:06,776487.0,0.0,0.0
12:05:06,777833.0,0.0,0.0
12:05:06,778097.0,0.0,0.0
12:05:06,776302.0,0.0,0.0
12:05:06,778919.0,0.0,0.0
12:05:06,776509.0,0.0,0.0
12:05:06,777867.0,0.0,0.0
12:05:07,778128.0,0.0,0.0
12:05:07,776394.0,0.0,0.0
12:05:07,779000.0,0.0,0.0
12:05:07,776564.0,0.0,0.0
12:05:07,777963.0,0.0,0.0
12:05:07,778181.0,0.0,0.0
12:05:07,776432.0,0.0,0.0
12:05:07,779056.0,0.0,0.0
12:05:07,776581.0,0.0,0.0
12:05:07,777936.0,0.0,0.0
12:05:07,778171.0,0.0,0.0
12:05:07,776426.0,0.0,0.0
12:05:07,779048.0,0.0,0.0
12:05:07,776569.0,0.0,0.0
12:05:07,777944.0,0.0,0.0
12:05:07,778160.0,0.0,0.0
12:05:07,776381.0,0.0,0.0
12:05:07,778992.0,0.0,0.0
12:05:07,776531.0,0.0,0.0
12:05:07,777896.0,0.0,0.0
12:05:07,778083.0,0.0,0.0
12:05:07,776371.0,0.0,0.0
12:05:07,779003.0,0.0,0.0
12:05:07,776456.0,0.0,0.0
12:05:07,777849.0,0.0,0.0
12:05:07,778061.0,0.0,0.0
12:05:07,776294.0,0.0,0.0
12:05:07,778845.0,0.0,0.0
12:05:07,776414.0,0.0,0.0
12:05:07,777912.0,0.0,0.0
12:05:07,778241.0,0.0,0.0
12:05:07,776360.0,0.0,0.0
12:05:07,778884.0,0.0,0.0
12:05:07,776400.0,0.0,0.0
12:05:07,777769.0,0.0,0.0
12:05:07,777946.0,0.0,0.0
12:05:07,776200.0,0.0,0.0
12:05:07,778791.0,0.0,0.0
12:05:07,776300.0,0.0,0.0
12:05:07,777649.0,0.0,0.0
12:05:07,777786.0,0.0,0.0
12:05:07,776042.0,0.0,0.0
12:05:07,778578.0,0.0,0.0
12:05:07,776067.0,0.0,0.0
12:05:07,777464.0,0.0,0.0
12:05:07,777669.0,0.0,0.0
12:05:07,775928.0,0.0,0.0
12:05:07,778551.0,0.0,0.0
12:05:07,776046.0,0.0,0.0
12:05:07,777431.0,0.0,0.0
12:05:07,777583.0,0.0,0.0
12:05:07,775854.0,0.0,0.0
12:05:07,778439.0,0.0,0.0
12:05:07,775963.0,0.0,0.0
12:05:07,777372.0,0.0,0.0
12:05:07,777529.0,0.0,0.0
12:05:07,775794.0,0.0,0.0
12:05:07,778361.0,0.0,0.0
12:05:07,775862.0,0.0,0.0
12:05:07,777298.0,0.0,0.0
12:05:07,777485.0,0.0,0.0
12:05:07,775788.0,0.0,0.0
12:05:07,778405.0,0.0,0.0
12:05:07,775919.0,0.0,0.0
12:05:07,777381.0,0.0,0.0
12:05:07,777554.0,0.0,0.0
12:05:07,775848.0,0.0,0.0
12:05:07,778463.0,0.0,0.0
12:05:07,775986.0,0.0,0.0
12:05:07,777448.0,0.0,0.0
12:05:07,777589.0,0.0,0.0
12:05:07,775916.0,0.0,0.0
12:05:07,778524.0,0.0,0.0
12:05:07,776026.0,0.0,0.0
12:05:07,777481.0,0.0,0.0
12:05:07,777645.0,0.0,0.0
12:05:07,775957.0,0.0,0.0
12:05:07,778548.0,0.0,0.0
12:05:07,776016.0,0.0,0.0
12:05:07,777449.0,0.0,0.0
12:05:07,777622.0,0.0,0.0
12:05:07,775943.0,0.0,0.0
12:05:07,778533.0,0.0,0.0
12:05:07,776039.0,0.0,0.0
12:05:07,777478.0,0.0,0.0
12:05:07,777628.0,0.0,0.0
12:05:07,775996.0,0.0,0.0
12:05:07,778563.0,0.0,0.0
12:05:07,776084.0,0.0,0.0
12:05:07,777553.0,0.0,0.0
12:05:07,777665.0,0.0,0.0
12:05:07,775984.0,0.0,0.0
12:05:07,778584.0,0.0,0.0
12:05:07,776106.0,0.0,0.0
12:05:07,777580.0,0.0,0.0
12:05:07,777723.0,0.0,0.0
12:05:07,776066.0,0.0,0.0
12:05:07,778646.0,0.0,0.0
12:05:07,776149.0,0.0,0.0
12:05:07,777631.0,0.0,0.0
12:05:07,777778.0,0.0,0.0
12:05:07,776151.0,0.0,0.0
12:05:07,778728.0,0.0,0.0
12:05:07,776239.0,0.0,0.0
12:05:07,777713.0,0.0,0.0
12:05:07,777848.0,0.0,0.0
12:05:07,776181.0,0.0,0.0
12:05:07,778755.0,0.0,0.0
12:05:07,776240.0,0.0,0.0
12:05:07,777717.0,0.0,0.0
12:05:07,777811.0,0.0,0.0
12:05:07,776186.0,0.0,0.0
12:05:07,778782.0,0.0,0.0
12:05:07,776308.0,0.0,0.0
12:05:07,777793.0,0.0,0.0
12:05:07,777891.0,0.0,0.0
12:05:07,776186.0,0.0,0.0
12:05:07,778678.0,0.0,0.0
12:05:07,776223.0,0.0,0.0
12:05:07,777736.0,0.0,0.0
12:05:07,777919.0,0.0,0.0
12:05:07,776361.0,0.0,0.0
12:05:07,778859.0,0.0,0.0
12:05:07,776299.0,0.0,0.0
12:05:07,777756.0,0.0,0.0
12:05:08,777840.0,0.0,0.0
12:05:08,776198.0,0.0,0.0
12:05:08,778761.0,0.0,0.0
12:05:08,776227.0,0.0,0.0
12:05:08,777696.0,0.0,0.0
12:05:08,777770.0,0.0,0.0
12:05:08,776119.0,0.0,0.0
12:05:08,778641.0,0.0,0.0
12:05:08,776111.0,0.0,0.0
12:05:08,777562.0,0.0,0.0
12:05:08,777599.0,0.0,0.0
12:05:08,775992.0,0.0,0.0
12:05:08,778558.0,0.0,0.0
12:05:08,776068.0,0.0,0.0
12:05:08,777576.0,0.0,0.0
12:05:08,777634.0,0.0,0.0
12:05:08,776014.0,0.0,0.0
12:05:08,778540.0,0.0,0.0
12:05:08,775993.0,0.0,0.0
12:05:08,777483.0,0.0,0.0
12:05:08,777538.0,0.0,0.0
12:05:08,775951.0,0.0,0.0
12:05:08,778492.0,0.0,0.0
12:05:08,775949.0,0.0,0.0
12:05:08,777477.0,0.0,0.0
12:05:08,777558.0,0.0,0.0
12:05:08,775931.0,0.0,0.0
12:05:08,778493.0,0.0,0.0
12:05:08,775971.0,0.0,0.0
12:05:08,777513.0,0.0,0.0
12:05:08,777555.0,0.0,0.0
12:05:08,775931.0,0.0,0.0
12:05:08,778487.0,0.0,0.0
12:05:08,775947.0,0.0,0.0
12:05:08,777484.0,0.0,0.0
12:05:08,777517.0,0.0,0.0
12:05:08,775904.0,0.0,0.0
12:05:08,778439.0,0.0,0.0
12:05:08,775903.0,0.0,0.0
12:05:08,777453.0,0.0,0.0
12:05:08,777478.0,0.0,0.0
12:05:08,775889.0,0.0,0.0
12:05:08,778448.0,0.0,0.0
12:05:08,775936.0,0.0,0.0
12:05:08,777458.0,0.0,0.0
12:05:08,777481.0,0.0,0.0
12:05:08,775893.0,0.0,0.0
12:05:08,778457.0,0.0,0.0
12:05:08,775914.0,0.0,0.0
12:05:08,777464.0,0.0,0.0
12:05:08,777461.0,0.0,0.0
12:05:08,775876.0,0.0,0.0
12:05:08,778429.0,0.0,0.0
12:05:08,775899.0,0.0,0.0
12:05:08,777428.0,0.0,0.0
12:05:08,777456.0,0.0,0.0
12:05:08,775878.0,0.0,0.0
12:05:08,778444.0,0.0,0.0
12:05:08,775914.0,0.0,0.0
12:05:08,777457.0,0.0,0.0
12:05:08,777480.0,0.0,0.0
12:05:08,775956.0,0.0,0.0
12:05:08,778497.0,0.0,0.0
12:05:08,775994.0,0.0,0.0
12:05:08,777554.0,0.0,0.0
12:05:08,777531.0,0.0,0.0
12:05:08,775984.0,0.0,0.0
12:05:08,778530.0,0.0,0.0
12:05:08,776010.0,0.0,0.0
12:05:08,777532.0,0.0,0.0
12:05:08,777534.0,0.0,0.0
12:05:08,775948.0,0.0,0.0
12:05:08,778483.0,0.0,0.0
12:05:08,775949.0,0.0,0.0
12:05:08,777523.0,0.0,0.0
12:05:08,777564.0,0.0,0.0
12:05:08,776022.0,0.0,0.0
12:05:08,778543.0,0.0,0.0
12:05:08,776001.0,0.0,0.0
12:05:08,777591.0,0.0,0.0
12:05:08,777597.0,0.0,0.0
12:05:08,776062.0,0.0,0.0
12:05:08,778574.0,0.0,0.0
12:05:08,776000.0,0.0,0.0
12:05:08,777473.0,0.0,0.0
12:05:08,777472.0,0.0,0.0
12:05:08,776017.0,0.0,0.0
12:05:08,778598.0,0.0,0.0
12:05:08,776156.0,0.0,0.0
12:05:08,777634.0,0.0,0.0
12:05:08,777546.0,0.0,0.0
12:05:08,775984.0,0.0,0.0
12:05:08,778479.0,0.0,0.0
12:05:08,775933.0,0.0,0.0
12:05:08,777490.0,0.0,0.0
12:05:08,777479.0,0.0,0.0
12:05:08,775956.0,0.0,0.0
12:05:08,778355.0,0.0,0.0
12:05:08,775827.0,0.0,0.0
12:05:08,777359.0,0.0,0.0
12:05:08,777273.0,0.0,0.0
12:05:08,775713.0,0.0,0.0
12:05:08,778153.0,0.0,0.0
12:05:08,775632.0,0.0,0.0
12:05:08,777157.0,0.0,0.0
12:05:08,777099.0,0.0,0.0
12:05:08,775611.0,0.0,0.0
12:05:08,778100.0,0.0,0.0
12:05:08,775539.0,0.0,0.0
12:05:08,777088.0,0.0,0.0
12:05:08,777022.0,0.0,0.0
12:05:08,775483.0,0.0,0.0
12:05:08,777942.0,0.0,0.0
12:05:08,775396.0,0.0,0.0
12:05:08,776941.0,0.0,0.0
12:05:08,776918.0,0.0,0.0
12:05:08,775392.0,0.0,0.0
12:05:08,777848.0,0.0,0.0
12:05:08,775332.0,0.0,0.0
12:05:08,776958.0,0.0,0.0
12:05:08,776916.0,0.0,0.0
12:05:08,775486.0,0.0,0.0
12:05:08,778026.0,0.0,0.0
12:05:08,775527.0,0.0,0.0
12:05:08,777163.0,0.0,0.0
12:05:09,777108.0,0.0,0.0
12:05:09,775614.0,0.0,0.0
12:05:09,778072.0,0.0,0.0
12:05:09,775526.0,0.0,0.0
12:05:09,777109.0,0.0,0.0
12:05:09,777009.0,0.0,0.0
12:05:09,775486.0,0.0,0.0
12:05:09,777939.0,0.0,0.0
12:05:09,775358.0,0.0,0.0
12:05:09,776969.0,0.0,0.0
12:05:09,776889.0,0.0,0.0
12:05:09,775391.0,0.0,0.0
12:05:09,777851.0,0.0,0.0
12:05:09,775337.0,0.0,0.0
12:05:09,776957.0,0.0,0.0
12:05:09,776888.0,0.0,0.0
12:05:09,775449.0,0.0,0.0
12:05:09,777938.0,0.0,0.0
12:05:09,775379.0,0.0,0.0
12:05:09,777011.0,0.0,0.0
12:05:09,776901.0,0.0,0.0
12:05:09,775440.0,0.0,0.0
12:05:09,777941.0,0.0,0.0
12:05:09,775378.0,0.0,0.0
12:05:09,776981.0,0.0,0.0
12:05:09,776862.0,0.0,0.0
12:05:09,775391.0,0.0,0.0
12:05:09,777854.0,0.0,0.0
12:05:09,775344.0,0.0,0.0
12:05:09,777025.0,0.0,0.0
12:05:09,776895.0,0.0,0.0
12:05:09,775458.0,0.0,0.0
12:05:09,777896.0,0.0,0.0
12:05:09,775361.0,0.0,0.0
12:05:09,776954.0,0.0,0.0
12:05:09,776828.0,0.0,0.0
12:05:09,775403.0,0.0,0.0
12:05:09,777834.0,0.0,0.0
12:05:09,775346.0,0.0,0.0
12:05:09,776958.0,0.0,0.0
12:05:09,776855.0,0.0,0.0
12:05:09,775449.0,0.0,0.0
12:05:09,777878.0,0.0,0.0
12:05:09,775394.0,0.0,0.0
12:05:09,776988.0,0.0,0.0
12:05:09,776895.0,0.0,0.0
12:05:09,775426.0,0.0,0.0
12:05:09,777774.0,0.0,0.0
12:05:09,775332.0,0.0,0.0
12:05:09,776753.0,0.0,0.0
12:05:09,776699.0,0.0,0.0
12:05:09,775149.0,0.0,0.0
12:05:09,777020.0,0.0,0.0
12:05:09,775311.0,0.0,0.0
12:05:09,776145.0,0.0,0.0
12:05:09,776266.0,0.0,0.0
12:05:09,775265.0,0.0,0.0
12:05:09,776316.0,0.0,0.0
12:05:09,775121.0,0.0,0.0
12:05:09,775799.0,0.0,0.0
12:05:09,775839.0,0.0,0.0
12:05:09,775228.0,0.0,0.0
12:05:09,776131.0,0.0,0.0
12:05:09,775322.0,0.0,0.0
12:05:09,775821.0,0.0,0.0
12:05:09,775717.0,0.0,0.0
12:05:09,775289.0,0.0,0.0
12:05:09,775853.0,0.0,0.0
12:05:09,775223.0,0.0,0.0
12:05:09,775481.0,0.0,0.0
12:05:09,775319.0,0.0,0.0
12:05:09,775034.0,0.0,0.0
12:05:09,775319.0,0.0,0.0
12:05:09,774883.0,0.0,0.0
12:05:09,775089.0,0.0,0.0
12:05:09,774943.0,0.0,0.0
12:05:09,774724.0,0.0,0.0
12:05:09,774934.0,0.0,0.0
12:05:09,774554.0,0.0,0.0
12:05:09,774713.0,0.0,0.0
12:05:09,774541.0,0.0,0.0
12:05:09,774403.0,0.0,0.0
12:05:09,774628.0,0.0,0.0
12:05:09,774394.0,0.0,0.0
12:05:09,774587.0,0.0,0.0
12:05:09,774524.0,0.0,0.0
12:05:09,774432.0,0.0,0.0
12:05:09,774633.0,0.0,0.0
12:05:09,774343.0,0.0,0.0
12:05:09,774497.0,0.0,0.0
12:05:09,774347.0,0.0,0.0
12:05:09,774209.0,0.0,0.0
12:05:09,774365.0,0.0,0.0
12:05:09,774055.0,0.0,0.0
12:05:09,774232.0,0.0,0.0
12:05:09,774131.0,0.0,0.0
12:05:09,773990.0,0.0,0.0
12:05:09,774180.0,0.0,0.0
12:05:09,773934.0,0.0,0.0
12:05:09,774171.0,0.0,0.0
12:05:09,774150.0,0.0,0.0
12:05:09,774131.0,0.0,0.0
12:05:09,774474.0,0.0,0.0
12:05:09,774316.0,0.0,0.0
12:05:09,774632.0,0.0,0.0
12:05:09,774683.0,0.0,0.0
12:05:09,774695.0,0.0,0.0
12:05:09,775002.0,0.0,0.0
12:05:09,774816.0,0.0,0.0
12:05:09,775092.0,0.0,0.0
12:05:09,775108.0,0.0,0.0
12:05:09,775054.0,0.0,0.0
12:05:09,775315.0,0.0,0.0
12:05:09,775113.0,0.0,0.0
12:05:09,775369.0,0.0,0.0
12:05:09,775299.0,0.0,0.0
12:05:09,775253.0,0.0,0.0
12:05:09,775496.0,0.0,0.0
12:05:09,775269.0,0.0,0.0
12:05:09,775571.0,0.0,0.0
12:05:09,775478.0,0.0,0.0
12:05:09,775373.0,0.0,0.0
12:05:09,775635.0,0.0,0.0
12:05:09,775331.0,0.0,0.0
12:05:09,775501.0,0.0,0.0
12:05:10,775359.0,0.0,0.0
12:05:10,775199.0,0.0,0.0
12:05:10,775304.0,0.0,0.0
12:05:10,774940.0,0.0,0.0
12:05:10,775067.0,0.0,0.0
12:05:10,774885.0,0.0,0.0
12:05:10,774724.0,0.0,0.0
12:05:10,774855.0,0.0,0.0
12:05:10,774508.0,0.0,0.0
12:05:10,774739.0,0.0,0.0
12:05:10,774671.0,0.0,0.0
12:05:10,774641.0,0.0,0.0
12:05:10,774959.0,0.0,0.0
12:05:10,774772.0,0.0,0.0
12:05:10,775046.0,0.0,0.0
12:05:10,775031.0,0.0,0.0
12:05:10,774948.0,0.0,0.0
12:05:10,775097.0,0.0,0.0
12:05:10,774789.0,0.0,0.0
12:05:10,775029.0,0.0,0.0
12:05:10,774963.0,0.0,0.0
12:05:10,775013.0,0.0,0.0
12:05:10,775143.0,0.0,0.0
12:05:10,774629.0,0.0,0.0
12:05:10,774764.0,0.0,0.0
12:05:10,774616.0,0.0,0.0
12:05:10,774500.0,0.0,0.0
12:05:10,774628.0,0.0,0.0
12:05:10,774322.0,0.0,0.0
12:05:10,774548.0,0.0,0.0
12:05:10,774381.0,0.0,0.0
12:05:10,774288.0,0.0,0.0
12:05:10,774484.0,0.0,0.0
12:05:10,774201.0,0.0,0.0
12:05:10,774440.0,0.0,0.0
12:05:10,774378.0,0.0,0.0
12:05:10,774302.0,0.0,0.0
12:05:10,774543.0,0.0,0.0
12:05:10,774313.0,0.0,0.0
12:05:10,774596.0,0.0,0.0
12:05:10,774493.0,0.0,0.0
12:05:10,774450.0,0.0,0.0
12:05:10,774641.0,0.0,0.0
12:05:10,774336.0,0.0,0.0
12:05:10,774526.0,0.0,0.0
12:05:10,774360.0,0.0,0.0
12:05:10,774258.0,0.0,0.0
12:05:10,774398.0,0.0,0.0
12:05:10,774092.0,0.0,0.0
12:05:10,774234.0,0.0,0.0
12:05:10,774078.0,0.0,0.0
12:05:10,773959.0,0.0,0.0
12:05:10,774158.0,0.0,0.0
12:05:10,773893.0,0.0,0.0
12:05:10,774128.0,0.0,0.0
12:05:10,774032.0,0.0,0.0
12:05:10,773987.0,0.0,0.0
12:05:10,774218.0,0.0,0.0
12:05:10,773943.0,0.0,0.0
12:05:10,774166.0,0.0,0.0
12:05:10,774086.0,0.0,0.0
12:05:10,774066.0,0.0,0.0
12:05:10,774303.0,0.0,0.0
12:05:10,774058.0,0.0,0.0
12:05:10,774344.0,0.0,0.0
12:05:10,774232.0,0.0,0.0
12:05:10,774127.0,0.0,0.0
12:05:10,774348.0,0.0,0.0
12:05:10,774081.0,0.0,0.0
12:05:10,774303.0,0.0,0.0
12:05:10,774184.0,0.0,0.0
12:05:10,774111.0,0.0,0.0
12:05:10,774327.0,0.0,0.0
12:05:10,774011.0,0.0,0.0
12:05:10,774217.0,0.0,0.0
12:05:10,774086.0,0.0,0.0
12:05:10,774018.0,0.0,0.0
12:05:10,774203.0,0.0,0.0
12:05:10,773870.0,0.0,0.0
12:05:10,774103.0,0.0,0.0
12:05:10,773965.0,0.0,0.0
12:05:10,773858.0,0.0,0.0
12:05:10,774029.0,0.0,0.0
12:05:10,773701.0,0.0,0.0
12:05:10,773922.0,0.0,0.0
12:05:10,773798.0,0.0,0.0
12:05:10,773733.0,0.0,0.0
12:05:10,773934.0,0.0,0.0
12:05:10,773679.0,0.0,0.0
12:05:10,773953.0,0.0,0.0
12:05:10,773874.0,0.0,0.0
12:05:10,773838.0,0.0,0.0
12:05:10,774062.0,0.0,0.0
12:05:10,773815.0,0.0,0.0
12:05:10,774033.0,0.0,0.0
12:05:10,773921.0,0.0,0.0
12:05:10,773871.0,0.0,0.0
12:05:10,774073.0,0.0,0.0
12:05:10,773802.0,0.0,0.0
12:05:10,774023.0,0.0,0.0
12:05:10,773897.0,0.0,0.0
12:05:10,773829.0,0.0,0.0
12:05:10,774016.0,0.0,0.0
12:05:10,773653.0,0.0,0.0
12:05:10,773815.0,0.0,0.0
12:05:10,773754.0,0.0,0.0
12:05:10,773754.0,0.0,0.0
12:05:10,774154.0,0.0,0.0
12:05:10,773913.0,0.0,0.0
12:05:10,773971.0,0.0,0.0
12:05:10,773804.0,0.0,0.0
12:05:10,773739.0,0.0,0.0
12:05:10,773941.0,0.0,0.0
12:05:10,773642.0,0.0,0.0
12:05:10,773848.0,0.0,0.0
12:05:10,773725.0,0.0,0.0
12:05:10,773663.0,0.0,0.0
12:05:10,773854.0,0.0,0.0
12:05:10,773527.0,0.0,0.0
12:05:10,773771.0,0.0,0.0
12:05:10,773650.0,0.0,0.0
12:05:10,773571.0,0.0,0.0
12:05:10,773776.0,0.0,0.0
12:05:10,773478.0,0.0,0.0
12:05:11,773706.0,0.0,0.0
12:05:11,773584.0,0.0,0.0
12:05:11,773528.0,0.0,0.0
12:05:11,773706.0,0.0,0.0
12:05:11,773446.0,0.0,0.0
12:05:11,773666.0,0.0,0.0
12:05:11,773538.0,0.0,0.0
12:05:11,773448.0,0.0,0.0
12:05:11,773645.0,0.0,0.0
12:05:11,773373.0,0.0,0.0
12:05:11,773614.0,0.0,0.0
12:05:11,773524.0,0.0,0.0
12:05:11,773461.0,0.0,0.0
12:05:11,773663.0,0.0,0.0
12:05:11,773412.0,0.0,0.0
12:05:11,773673.0,0.0,0.0
12:05:11,773574.0,0.0,0.0
12:05:11,773539.0,0.0,0.0
12:05:11,773734.0,0.0,0.0
12:05:11,773409.0,0.0,0.0
12:05:11,773620.0,0.0,0.0
12:05:11,773556.0,0.0,0.0
12:05:11,773502.0,0.0,0.0
12:05:11,773645.0,0.0,0.0
12:05:11,773359.0,0.0,0.0
12:05:11,773559.0,0.0,0.0
12:05:11,773458.0,0.0,0.0
12:05:11,773420.0,0.0,0.0
12:05:11,773636.0,0.0,0.0
12:05:11,773371.0,0.0,0.0
12:05:11,773606.0,0.0,0.0
12:05:11,773483.0,0.0,0.0
12:05:11,773439.0,0.0,0.0
12:05:11,773641.0,0.0,0.0
12:05:11,773364.0,0.0,0.0
12:05:11,773574.0,0.0,0.0
12:05:11,773443.0,0.0,0.0
12:05:11,773404.0,0.0,0.0
12:05:11,773586.0,0.0,0.0
12:05:11,773318.0,0.0,0.0
12:05:11,773527.0,0.0,0.0
12:05:11,773379.0,0.0,0.0
12:05:11,773303.0,0.0,0.0
12:05:11,773473.0,0.0,0.0
12:05:11,773198.0,0.0,0.0
12:05:11,773386.0,0.0,0.0
12:05:11,773257.0,0.0,0.0
12:05:11,773197.0,0.0,0.0
12:05:11,773374.0,0.0,0.0
12:05:11,773059.0,0.0,0.0
12:05:11,773271.0,0.0,0.0
12:05:11,773140.0,0.0,0.0
12:05:11,773091.0,0.0,0.0
12:05:11,773288.0,0.0,0.0
12:05:11,773039.0,0.0,0.0
12:05:11,773300.0,0.0,0.0
12:05:11,773200.0,0.0,0.0
12:05:11,773161.0,0.0,0.0
12:05:11,773368.0,0.0,0.0
12:05:11,773131.0,0.0,0.0
12:05:11,773359.0,0.0,0.0
12:05:11,773211.0,0.0,0.0
12:05:11,773168.0,0.0,0.0
12:05:11,773368.0,0.0,0.0
12:05:11,773099.0,0.0,0.0
12:05:11,773330.0,0.0,0.0
12:05:11,773242.0,0.0,0.0
12:05:11,773155.0,0.0,0.0
12:05:11,773336.0,0.0,0.0
12:05:11,773028.0,0.0,0.0
12:05:11,773217.0,0.0,0.0
12:05:11,773113.0,0.0,0.0
12:05:11,773071.0,0.0,0.0
12:05:11,773362.0,0.0,0.0
12:05:11,773217.0,0.0,0.0
12:05:11,773293.0,0.0,0.0
12:05:11,773028.0,0.0,0.0
12:05:11,772977.0,0.0,0.0
12:05:11,773138.0,0.0,0.0
12:05:11,772854.0,0.0,0.0
12:05:11,773075.0,0.0,0.0
12:05:11,772895.0,0.0,0.0
12:05:11,772817.0,0.0,0.0
12:05:11,772971.0,0.0,0.0
12:05:11,772652.0,0.0,0.0
12:05:11,772849.0,0.0,0.0
12:05:11,772728.0,0.0,0.0
12:05:11,772671.0,0.0,0.0
12:05:11,772821.0,0.0,0.0
12:05:11,772518.0,0.0,0.0
12:05:11,772746.0,0.0,0.0
12:05:11,772596.0,0.0,0.0
12:05:11,772509.0,0.0,0.0
12:05:11,772676.0,0.0,0.0
12:05:11,772365.0,0.0,0.0
12:05:11,772613.0,0.0,0.0
12:05:11,772482.0,0.0,0.0
12:05:11,772448.0,0.0,0.0
12:05:11,772625.0,0.0,0.0
12:05:11,772383.0,0.0,0.0
12:05:11,772636.0,0.0,0.0
12:05:11,772538.0,0.0,0.0
12:05:11,772571.0,0.0,0.0
12:05:11,772800.0,0.0,0.0
12:05:11,772611.0,0.0,0.0
12:05:11,772945.0,0.0,0.0
12:05:11,772819.0,0.0,0.0
12:05:11,772801.0,0.0,0.0
12:05:11,772989.0,0.0,0.0
12:05:11,772688.0,0.0,0.0
12:05:11,772897.0,0.0,0.0
12:05:11,772757.0,0.0,0.0
12:05:11,772679.0,0.0,0.0
12:05:11,772780.0,0.0,0.0
12:05:11,772471.0,0.0,0.0
12:05:11,772688.0,0.0,0.0
12:05:11,772561.0,0.0,0.0
12:05:11,772554.0,0.0,0.0
12:05:11,772774.0,0.0,0.0
12:05:11,772520.0,0.0,0.0
12:05:11,772744.0,0.0,0.0
12:05:11,772605.0,0.0,0.0
12:05:11,772539.0,0.0,0.0
12:05:11,772684.0,0.0,0.0
12:05:11,772386.0,0.0,0.0
12:05:12,772595.0,0.0,0.0
12:05:12,772424.0,0.0,0.0
12:05:12,772380.0,0.0,0.0
12:05:12,772512.0,0.0,0.0
12:05:12,772191.0,0.0,0.0
12:05:12,772321.0,0.0,0.0
12:05:12,772118.0,0.0,0.0
12:05:12,771996.0,0.0,0.0
12:05:12,772091.0,0.0,0.0
12:05:12,771806.0,0.0,0.0
12:05:12,772026.0,0.0,0.0
12:05:12,771906.0,0.0,0.0
12:05:12,771892.0,0.0,0.0
12:05:12,772116.0,0.0,0.0
12:05:12,771884.0,0.0,0.0
12:05:12,772180.0,0.0,0.0
12:05:12,772138.0,0.0,0.0
12:05:12,772162.0,0.0,0.0
12:05:12,772383.0,0.0,0.0
12:05:12,772169.0,0.0,0.0
12:05:12,772457.0,0.0,0.0
12:05:12,772390.0,0.0,0.0
12:05:12,772413.0,0.0,0.0
12:05:12,772598.0,0.0,0.0
12:05:12,772366.0,0.0,0.0
12:05:12,772622.0,0.0,0.0
12:05:12,772494.0,0.0,0.0
12:05:12,772468.0,0.0,0.0
12:05:12,772642.0,0.0,0.0
12:05:12,772391.0,0.0,0.0
12:05:12,772630.0,0.0,0.0
12:05:12,772494.0,0.0,0.0
12:05:12,772464.0,0.0,0.0
12:05:12,772638.0,0.0,0.0
12:05:12,772329.0,0.0,0.0
12:05:12,772513.0,0.0,0.0
12:05:12,772346.0,0.0,0.0
12:05:12,772306.0,0.0,0.0
12:05:12,772541.0,0.0,0.0
12:05:12,772408.0,0.0,0.0
12:05:12,772538.0,0.0,0.0
12:05:12,772311.0,0.0,0.0
12:05:12,772246.0,0.0,0.0
12:05:12,772429.0,0.0,0.0
12:05:12,772206.0,0.0,0.0
12:05:12,772476.0,0.0,0.0
12:05:12,772351.0,0.0,0.0
12:05:12,772359.0,0.0,0.0
12:05:12,772579.0,0.0,0.0
12:05:12,772298.0,0.0,0.0
12:05:12,772549.0,0.0,0.0
12:05:12,772438.0,0.0,0.0
12:05:12,772443.0,0.0,0.0
12:05:12,772605.0,0.0,0.0
12:05:12,772365.0,0.0,0.0
12:05:12,772633.0,0.0,0.0
12:05:12,772476.0,0.0,0.0
12:05:12,772491.0,0.0,0.0
12:05:12,772684.0,0.0,0.0
12:05:12,772420.0,0.0,0.0
12:05:12,772693.0,0.0,0.0
12:05:12,772549.0,0.0,0.0
12:05:12,772535.0,0.0,0.0
12:05:12,772693.0,0.0,0.0
12:05:12,772378.0,0.0,0.0
12:05:12,772590.0,0.0,0.0
12:05:12,772459.0,0.0,0.0
12:05:12,772441.0,0.0,0.0
12:05:12,772556.0,0.0,0.0
12:05:12,772311.0,0.0,0.0
12:05:12,772581.0,0.0,0.0
12:05:12,772432.0,0.0,0.0
12:05:12,772433.0,0.0,0.0
12:05:12,772623.0,0.0,0.0
12:05:12,772315.0,0.0,0.0
12:05:12,772532.0,0.0,0.0
12:05:12,772360.0,0.0,0.0
12:05:12,772315.0,0.0,0.0
12:05:12,772480.0,0.0,0.0
12:05:12,772183.0,0.0,0.0
12:05:12,772413.0,0.0,0.0
12:05:12,772258.0,0.0,0.0
12:05:12,772224.0,0.0,0.0
12:05:12,772363.0,0.0,0.0
12:05:12,772109.0,0.0,0.0
12:05:12,772384.0,0.0,0.0
12:05:12,772237.0,0.0,0.0
12:05:12,772218.0,0.0,0.0
12:05:12,772399.0,0.0,0.0
12:05:12,772167.0,0.0,0.0
12:05:12,772409.0,0.0,0.0
12:05:12,772229.0,0.0,0.0
12:05:12,772169.0,0.0,0.0
12:05:12,772316.0,0.0,0.0
12:05:12,772013.0,0.0,0.0
12:05:12,772242.0,0.0,0.0
12:05:12,772066.0,0.0,0.0
12:05:12,772051.0,0.0,0.0
12:05:12,772259.0,0.0,0.0
12:05:12,772041.0,0.0,0.0
12:05:12,772340.0,0.0,0.0
12:05:12,772185.0,0.0,0.0
12:05:12,772203.0,0.0,0.0
12:05:12,772433.0,0.0,0.0
12:05:12,772160.0,0.0,0.0
12:05:12,772419.0,0.0,0.0
12:05:12,772238.0,0.0,0.0
12:05:12,772204.0,0.0,0.0
12:05:12,772379.0,0.0,0.0
12:05:12,772105.0,0.0,0.0
12:05:12,772378.0,0.0,0.0
12:05:12,772255.0,0.0,0.0
12:05:12,772273.0,0.0,0.0
12:05:12,772471.0,0.0,0.0
12:05:12,772239.0,0.0,0.0
12:05:12,772504.0,0.0,0.0
12:05:12,772333.0,0.0,0.0
12:05:12,772326.0,0.0,0.0
12:05:12,772491.0,0.0,0.0
12:05:12,772233.0,0.0,0.0
12:05:12,772489.0,0.0,0.0
12:05:12,772336.0,0.0,0.0
12:05:12,772310.0,0.0,0.0
12:05:12,772474.0,0.0,0.0
12:05:12,772129.0,0.0,0.0
12:05:13,772391.0,0.0,0.0
12:05:13,772278.0,0.0,0.0
12:05:13,772319.0,0.0,0.0
12:05:13,772635.0,0.0,0.0
12:05:13,772408.0,0.0,0.0
12:05:13,772537.0,0.0,0.0
12:05:13,772332.0,0.0,0.0
12:05:13,772314.0,0.0,0.0
12:05:13,772488.0,0.0,0.0
12:05:13,772240.0,0.0,0.0
12:05:13,772518.0,0.0,0.0
12:05:13,772346.0,0.0,0.0
12:05:13,772328.0,0.0,0.0
12:05:13,772485.0,0.0,0.0
12:05:13,772198.0,0.0,0.0
12:05:13,772459.0,0.0,0.0
12:05:13,772295.0,0.0,0.0
12:05:13,772278.0,0.0,0.0
12:05:13,772454.0,0.0,0.0
12:05:13,772163.0,0.0,0.0
12:05:13,772473.0,0.0,0.0
12:05:13,772317.0,0.0,0.0
12:05:13,772298.0,0.0,0.0
12:05:13,772458.0,0.0,0.0
12:05:13,772185.0,0.0,0.0
12:05:13,772428.0,0.0,0.0
12:05:13,772240.0,0.0,0.0
12:05:13,772234.0,0.0,0.0
12:05:13,772393.0,0.0,0.0
12:05:13,772158.0,0.0,0.0
12:05:13,772459.0,0.0,0.0
12:05:13,772307.0,0.0,0.0
12:05:13,772281.0,0.0,0.0
12:05:13,772484.0,0.0,0.0
12:05:13,772201.0,0.0,0.0
12:05:13,772478.0,0.0,0.0
12:05:13,772353.0,0.0,0.0
12:05:13,772368.0,0.0,0.0
12:05:13,772542.0,0.0,0.0
12:05:13,772302.0,0.0,0.0
12:05:13,772545.0,0.0,0.0
12:05:13,772394.0,0.0,0.0
12:05:13,772398.0,0.0,0.0
12:05:13,772603.0,0.0,0.0
12:05:13,772337.0,0.0,0.0
12:05:13,772581.0,0.0,0.0
12:05:13,772429.0,0.0,0.0
12:05:13,772436.0,0.0,0.0
12:05:13,772624.0,0.0,0.0
12:05:13,772357.0,0.0,0.0
12:05:13,772619.0,0.0,0.0
12:05:13,772446.0,0.0,0.0
12:05:13,772472.0,0.0,0.0
12:05:13,772629.0,0.0,0.0
12:05:13,772365.0,0.0,0.0
12:05:13,772622.0,0.0,0.0
12:05:13,772461.0,0.0,0.0
12:05:13,772474.0,0.0,0.0
12:05:13,772634.0,0.0,0.0
12:05:13,772366.0,0.0,0.0
12:05:13,772663.0,0.0,0.0
12:05:13,772483.0,0.0,0.0
12:05:13,772494.0,0.0,0.0
12:05:13,772657.0,0.0,0.0
12:05:13,772386.0,0.0,0.0
12:05:13,772644.0,0.0,0.0
12:05:13,772449.0,0.0,0.0
12:05:13,772461.0,0.0,0.0
12:05:13,772659.0,0.0,0.0
12:05:13,772434.0,0.0,0.0
12:05:13,772703.0,0.0,0.0
12:05:13,772520.0,0.0,0.0
12:05:13,772541.0,0.0,0.0
12:05:13,772688.0,0.0,0.0
12:05:13,772422.0,0.0,0.0
12:05:13,772686.0,0.0,0.0
12:05:13,772508.0,0.0,0.0
12:05:13,772529.0,0.0,0.0
12:05:13,772674.0,0.0,0.0
12:05:13,772373.0,0.0,0.0
12:05:13,772603.0,0.0,0.0
12:05:13,772426.0,0.0,0.0
12:05:13,772412.0,0.0,0.0
12:05:13,772479.0,0.0,0.0
12:05:13,772161.0,0.0,0.0
12:05:13,772439.0,0.0,0.0
12:05:13,772304.0,0.0,0.0
12:05:13,772463.0,0.0,0.0
12:05:13,772620.0,0.0,0.0
12:05:13,772161.0,0.0,0.0
12:05:13,772369.0,0.0,0.0
12:05:13,772202.0,0.0,0.0
12:05:13,772201.0,0.0,0.0
12:05:13,772360.0,0.0,0.0
12:05:13,772084.0,0.0,0.0
12:05:13,772329.0,0.0,0.0
12:05:13,772128.0,0.0,0.0
12:05:13,772107.0,0.0,0.0
12:05:13,772212.0,0.0,0.0
12:05:13,771950.0,0.0,0.0
12:05:13,772193.0,0.0,0.0
12:05:13,771995.0,0.0,0.0
12:05:13,772003.0,0.0,0.0
12:05:13,772133.0,0.0,0.0
12:05:13,771870.0,0.0,0.0
12:05:13,772141.0,0.0,0.0
12:05:13,771984.0,0.0,0.0
12:05:13,771999.0,0.0,0.0
12:05:13,772117.0,0.0,0.0
12:05:13,771849.0,0.0,0.0
12:05:13,772106.0,0.0,0.0
12:05:13,771881.0,0.0,0.0
12:05:13,771881.0,0.0,0.0
12:05:13,772038.0,0.0,0.0
12:05:13,771803.0,0.0,0.0
12:05:13,772041.0,0.0,0.0
12:05:13,771844.0,0.0,0.0
12:05:13,771866.0,0.0,0.0
12:05:13,772026.0,0.0,0.0
12:05:13,771763.0,0.0,0.0
12:05:13,772028.0,0.0,0.0
12:05:13,771845.0,0.0,0.0
12:05:13,771859.0,0.0,0.0
12:05:13,771983.0,0.0,0.0
12:05:13,771692.0,0.0,0.0
12:05:14,771964.0,0.0,0.0
12:05:14,771784.0,0.0,0.0
12:05:14,771785.0,0.0,0.0
12:05:14,771911.0,0.0,0.0
12:05:14,771666.0,0.0,0.0
12:05:14,771939.0,0.0,0.0
12:05:14,771781.0,0.0,0.0
12:05:14,771791.0,0.0,0.0
12:05:14,771931.0,0.0,0.0
12:05:14,771649.0,0.0,0.0
12:05:14,771906.0,0.0,0.0
12:05:14,771722.0,0.0,0.0
12:05:14,771751.0,0.0,0.0
12:05:14,771877.0,0.0,0.0
12:05:14,771633.0,0.0,0.0
12:05:14,771875.0,0.0,0.0
12:05:14,771699.0,0.0,0.0
12:05:14,771696.0,0.0,0.0
12:05:14,771851.0,0.0,0.0
12:05:14,771621.0,0.0,0.0
12:05:14,771861.0,0.0,0.0
12:05:14,771713.0,0.0,0.0
12:05:14,771748.0,0.0,0.0
12:05:14,771873.0,0.0,0.0
12:05:14,771646.0,0.0,0.0
12:05:14,771887.0,0.0,0.0
12:05:14,771718.0,0.0,0.0
12:05:14,771705.0,0.0,0.0
12:05:14,771865.0,0.0,0.0
12:05:14,771654.0,0.0,0.0
12:05:14,771932.0,0.0,0.0
12:05:14,771744.0,0.0,0.0
12:05:14,771745.0,0.0,0.0
12:05:14,771892.0,0.0,0.0
12:05:14,771644.0,0.0,0.0
12:05:14,771911.0,0.0,0.0
12:05:14,771760.0,0.0,0.0
12:05:14,771760.0,0.0,0.0
12:05:14,771889.0,0.0,0.0
12:05:14,771644.0,0.0,0.0
12:05:14,771923.0,0.0,0.0
12:05:14,771745.0,0.0,0.0
12:05:14,771756.0,0.0,0.0
12:05:14,771825.0,0.0,0.0
12:05:14,771538.0,0.0,0.0
12:05:14,771811.0,0.0,0.0
12:05:14,771691.0,0.0,0.0
12:05:14,771784.0,0.0,0.0
12:05:14,772066.0,0.0,0.0
12:05:14,771773.0,0.0,0.0
12:05:14,771896.0,0.0,0.0
12:05:14,771711.0,0.0,0.0
12:05:14,771741.0,0.0,0.0
12:05:14,771858.0,0.0,0.0
12:05:14,771584.0,0.0,0.0
12:05:14,771844.0,0.0,0.0
12:05:14,771658.0,0.0,0.0
12:05:14,771676.0,0.0,0.0
12:05:14,771801.0,0.0,0.0
12:05:14,771567.0,0.0,0.0
12:05:14,771823.0,0.0,0.0
12:05:14,771605.0,0.0,0.0
12:05:14,771618.0,0.0,0.0
12:05:14,771739.0,0.0,0.0
12:05:14,771477.0,0.0,0.0
12:05:14,771749.0,0.0,0.0
12:05:14,771549.0,0.0,0.0
12:05:14,771581.0,0.0,0.0
12:05:14,771751.0,0.0,0.0
12:05:14,771504.0,0.0,0.0
12:05:14,771747.0,0.0,0.0
12:05:14,771560.0,0.0,0.0
12:05:14,771572.0,0.0,0.0
12:05:14,771715.0,0.0,0.0
12:05:14,771484.0,0.0,0.0
12:05:14,771719.0,0.0,0.0
12:05:14,771536.0,0.0,0.0
12:05:14,771571.0,0.0,0.0
12:05:14,771686.0,0.0,0.0
12:05:14,771443.0,0.0,0.0
12:05:14,771736.0,0.0,0.0
12:05:14,771550.0,0.0,0.0
12:05:14,771596.0,0.0,0.0
12:05:14,771765.0,0.0,0.0
12:05:14,771499.0,0.0,0.0
12:05:14,771764.0,0.0,0.0
12:05:14,771591.0,0.0,0.0
12:05:14,771639.0,0.0,0.0
12:05:14,771741.0,0.0,0.0
12:05:14,771474.0,0.0,0.0
12:05:14,771760.0,0.0,0.0
12:05:14,771538.0,0.0,0.0
12:05:14,771559.0,0.0,0.0
12:05:14,771666.0,0.0,0.0
12:05:14,771409.0,0.0,0.0
12:05:14,771648.0,0.0,0.0
12:05:14,771483.0,0.0,0.0
12:05:14,771535.0,0.0,0.0
12:05:14,771624.0,0.0,0.0
12:05:14,771394.0,0.0,0.0
12:05:14,771656.0,0.0,0.0
12:05:14,771458.0,0.0,0.0
12:05:14,771491.0,0.0,0.0
12:05:14,771614.0,0.0,0.0
12:05:14,771367.0,0.0,0.0
12:05:14,771602.0,0.0,0.0
12:05:14,771383.0,0.0,0.0
12:05:14,771435.0,0.0,0.0
12:05:14,771568.0,0.0,0.0
12:05:14,771341.0,0.0,0.0
12:05:14,771626.0,0.0,0.0
12:05:14,771458.0,0.0,0.0
12:05:14,771464.0,0.0,0.0
12:05:14,771578.0,0.0,0.0
12:05:14,771322.0,0.0,0.0
12:05:14,771612.0,0.0,0.0
12:05:14,771418.0,0.0,0.0
12:05:14,771489.0,0.0,0.0
12:05:14,771628.0,0.0,0.0
12:05:14,771368.0,0.0,0.0
12:05:14,771635.0,0.0,0.0
12:05:14,771439.0,0.0,0.0
12:05:14,771456.0,0.0,0.0
12:05:14,771549.0,0.0,0.0
12:05:14,771286.0,0.0,0.0
12:05:15,771546.0,0.0,0.0
12:05:15,771379.0,0.0,0.0
12:05:15,771415.0,0.0,0.0
12:05:15,771510.0,0.0,0.0
12:05:15,771296.0,0.0,0.0
12:05:15,771542.0,0.0,0.0
12:05:15,771326.0,0.0,0.0
12:05:15,771328.0,0.0,0.0
12:05:15,771414.0,0.0,0.0
12:05:15,771186.0,0.0,0.0
12:05:15,771498.0,0.0,0.0
12:05:15,771468.0,0.0,0.0
12:05:15,771487.0,0.0,0.0
12:05:15,771472.0,0.0,0.0
12:05:15,771223.0,0.0,0.0
12:05:15,771514.0,0.0,0.0
12:05:15,771334.0,0.0,0.0
12:05:15,771378.0,0.0,0.0
12:05:15,771476.0,0.0,0.0
12:05:15,771241.0,0.0,0.0
12:05:15,771491.0,0.0,0.0
12:05:15,771259.0,0.0,0.0
12:05:15,771239.0,0.0,0.0
12:05:15,771379.0,0.0,0.0
12:05:15,771172.0,0.0,0.0
12:05:15,771398.0,0.0,0.0
12:05:15,771185.0,0.0,0.0
12:05:15,771239.0,0.0,0.0
12:05:15,771342.0,0.0,0.0
12:05:15,771102.0,0.0,0.0
12:05:15,771380.0,0.0,0.0
12:05:15,771196.0,0.0,0.0
12:05:15,771238.0,0.0,0.0
12:05:15,771344.0,0.0,0.0
12:05:15,771106.0,0.0,0.0
12:05:15,771359.0,0.0,0.0
12:05:15,771189.0,0.0,0.0
12:05:15,771251.0,0.0,0.0
12:05:15,771339.0,0.0,0.0
12:05:15,771121.0,0.0,0.0
12:05:15,771389.0,0.0,0.0
12:05:15,771188.0,0.0,0.0
12:05:15,771208.0,0.0,0.0
12:05:15,771294.0,0.0,0.0
12:05:15,771064.0,0.0,0.0
12:05:15,771335.0,0.0,0.0
12:05:15,771124.0,0.0,0.0
12:05:15,771149.0,0.0,0.0
12:05:15,771272.0,0.0,0.0
12:05:15,771039.0,0.0,0.0
12:05:15,771307.0,0.0,0.0
12:05:15,771110.0,0.0,0.0
12:05:15,771138.0,0.0,0.0
12:05:15,771248.0,0.0,0.0
12:05:15,770991.0,0.0,0.0
12:05:15,771282.0,0.0,0.0
12:05:15,771110.0,0.0,0.0
12:05:15,771147.0,0.0,0.0
12:05:15,771224.0,0.0,0.0
12:05:15,770986.0,0.0,0.0
12:05:15,771253.0,0.0,0.0
12:05:15,771010.0,0.0,0.0
12:05:15,771029.0,0.0,0.0
12:05:15,771129.0,0.0,0.0
12:05:15,770916.0,0.0,0.0
12:05:15,771154.0,0.0,0.0
12:05:15,770930.0,0.0,0.0
12:05:15,770998.0,0.0,0.0
12:05:15,771123.0,0.0,0.0
12:05:15,770839.0,0.0,0.0
12:05:15,771119.0,0.0,0.0
12:05:15,770943.0,0.0,0.0
12:05:15,770992.0,0.0,0.0
12:05:15,771103.0,0.0,0.0
12:05:15,770854.0,0.0,0.0
12:05:15,771118.0,0.0,0.0
12:05:15,770952.0,0.0,0.0
12:05:15,771013.0,0.0,0.0
12:05:15,771131.0,0.0,0.0
12:05:15,770913.0,0.0,0.0
12:05:15,771158.0,0.0,0.0
12:05:15,770960.0,0.0,0.0
12:05:15,771004.0,0.0,0.0
12:05:15,771103.0,0.0,0.0
12:05:15,770904.0,0.0,0.0
12:05:15,771188.0,0.0,0.0
12:05:15,770958.0,0.0,0.0
12:05:15,771014.0,0.0,0.0
12:05:15,771148.0,0.0,0.0
12:05:15,770914.0,0.0,0.0
12:05:15,771184.0,0.0,0.0
12:05:15,770914.0,0.0,0.0
12:05:15,771001.0,0.0,0.0
12:05:15,771133.0,0.0,0.0
12:05:15,770858.0,0.0,0.0
12:05:15,771152.0,0.0,0.0
12:05:15,770999.0,0.0,0.0
12:05:15,771044.0,0.0,0.0
12:05:15,771149.0,0.0,0.0
12:05:15,770862.0,0.0,0.0
12:05:15,771066.0,0.0,0.0
12:05:15,770902.0,0.0,0.0
12:05:15,771020.0,0.0,0.0
12:05:15,771204.0,0.0,0.0
12:05:15,771163.0,0.0,0.0
12:05:15,771334.0,0.0,0.0
12:05:15,771024.0,0.0,0.0
12:05:15,771098.0,0.0,0.0
12:05:15,771214.0,0.0,0.0
12:05:15,770973.0,0.0,0.0
12:05:15,771228.0,0.0,0.0
12:05:15,771029.0,0.0,0.0
12:05:15,771087.0,0.0,0.0
12:05:15,771139.0,0.0,0.0
12:05:15,770904.0,0.0,0.0
12:05:15,771156.0,0.0,0.0
12:05:15,770913.0,0.0,0.0
12:05:15,770983.0,0.0,0.0
12:05:15,771078.0,0.0,0.0
12:05:15,770863.0,0.0,0.0
12:05:15,771145.0,0.0,0.0
12:05:15,770908.0,0.0,0.0
12:05:15,770977.0,0.0,0.0
12:05:15,771115.0,0.0,0.0
12:05:15,770883.0,0.0,0.0
12:05:16,771156.0,0.0,0.0
12:05:16,770936.0,0.0,0.0
12:05:16,770986.0,0.0,0.0
12:05:16,771086.0,0.0,0.0
12:05:16,770809.0,0.0,0.0
12:05:16,771082.0,0.0,0.0
12:05:16,770906.0,0.0,0.0
12:05:16,770959.0,0.0,0.0
12:05:16,771082.0,0.0,0.0
12:05:16,770854.0,0.0,0.0
12:05:16,771111.0,0.0,0.0
12:05:16,770942.0,0.0,0.0
12:05:16,771004.0,0.0,0.0
12:05:16,771107.0,0.0,0.0
12:05:16,770895.0,0.0,0.0
12:05:16,771173.0,0.0,0.0
12:05:16,770945.0,0.0,0.0
12:05:16,770996.0,0.0,0.0
12:05:16,771087.0,0.0,0.0
12:05:16,770868.0,0.0,0.0
12:05:16,771109.0,0.0,0.0
12:05:16,770900.0,0.0,0.0
12:05:16,770984.0,0.0,0.0
12:05:16,771093.0,0.0,0.0
12:05:16,770857.0,0.0,0.0
12:05:16,771121.0,0.0,0.0
12:05:16,770946.0,0.0,0.0
12:05:16,771048.0,0.0,0.0
12:05:16,771169.0,0.0,0.0
12:05:16,770894.0,0.0,0.0
12:05:16,771194.0,0.0,0.0
12:05:16,770957.0,0.0,0.0
12:05:16,771039.0,0.0,0.0
12:05:16,771126.0,0.0,0.0
12:05:16,770901.0,0.0,0.0
12:05:16,771180.0,0.0,0.0
12:05:16,770976.0,0.0,0.0
12:05:16,771057.0,0.0,0.0
12:05:16,771123.0,0.0,0.0
12:05:16,770891.0,0.0,0.0
12:05:16,771170.0,0.0,0.0
12:05:16,770969.0,0.0,0.0
12:05:16,771050.0,0.0,0.0
12:05:16,771139.0,0.0,0.0
12:05:16,770933.0,0.0,0.0
12:05:16,771205.0,0.0,0.0
12:05:16,771019.0,0.0,0.0
12:05:16,771073.0,0.0,0.0
12:05:16,771168.0,0.0,0.0
12:05:16,770948.0,0.0,0.0
12:05:16,771248.0,0.0,0.0
12:05:16,771018.0,0.0,0.0
12:05:16,771054.0,0.0,0.0
12:05:16,771160.0,0.0,0.0
12:05:16,770938.0,0.0,0.0
12:05:16,771182.0,0.0,0.0
12:05:16,770954.0,0.0,0.0
12:05:16,771030.0,0.0,0.0
12:05:16,771130.0,0.0,0.0
12:05:16,770931.0,0.0,0.0
12:05:16,771195.0,0.0,0.0
12:05:16,770981.0,0.0,0.0
12:05:16,771079.0,0.0,0.0
12:05:16,771167.0,0.0,0.0
12:05:16,770881.0,0.0,0.0
12:05:16,771079.0,0.0,0.0
12:05:16,770861.0,0.0,0.0
12:05:16,770988.0,0.0,0.0
12:05:16,771154.0,0.0,0.0
12:05:16,771111.0,0.0,0.0
12:05:16,771392.0,0.0,0.0
12:05:16,771020.0,0.0,0.0
12:05:16,771021.0,0.0,0.0
12:05:16,771094.0,0.0,0.0
12:05:16,770872.0,0.0,0.0
12:05:16,771094.0,0.0,0.0
12:05:16,770876.0,0.0,0.0
12:05:16,770964.0,0.0,0.0
12:05:16,770993.0,0.0,0.0
12:05:16,770748.0,0.0,0.0
12:05:16,770986.0,0.0,0.0
12:05:16,770767.0,0.0,0.0
12:05:16,770842.0,0.0,0.0
12:05:16,770910.0,0.0,0.0
12:05:16,770692.0,0.0,0.0
12:05:16,770941.0,0.0,0.0
12:05:16,770744.0,0.0,0.0
12:05:16,770836.0,0.0,0.0
12:05:16,770921.0,0.0,0.0
12:05:16,770683.0,0.0,0.0
12:05:16,770931.0,0.0,0.0
12:05:16,770668.0,0.0,0.0
12:05:16,770752.0,0.0,0.0
12:05:16,770817.0,0.0,0.0
12:05:16,770625.0,0.0,0.0
12:05:16,770910.0,0.0,0.0
12:05:16,770688.0,0.0,0.0
12:05:16,770789.0,0.0,0.0
12:05:16,770891.0,0.0,0.0
12:05:16,770706.0,0.0,0.0
12:05:16,770998.0,0.0,0.0
12:05:16,770776.0,0.0,0.0
12:05:16,770889.0,0.0,0.0
12:05:16,770931.0,0.0,0.0
12:05:16,770695.0,0.0,0.0
12:05:16,770949.0,0.0,0.0
12:05:16,770704.0,0.0,0.0
12:05:16,770769.0,0.0,0.0
12:05:16,770901.0,0.0,0.0
12:05:16,770711.0,0.0,0.0
12:05:16,770994.0,0.0,0.0
12:05:16,770784.0,0.0,0.0
12:05:16,770848.0,0.0,0.0
12:05:16,770907.0,0.0,0.0
12:05:16,770691.0,0.0,0.0
12:05:16,770953.0,0.0,0.0
12:05:16,770706.0,0.0,0.0
12:05:16,770789.0,0.0,0.0
12:05:16,770872.0,0.0,0.0
12:05:16,770646.0,0.0,0.0
12:05:16,770919.0,0.0,0.0
12:05:16,770708.0,0.0,0.0
12:05:16,770818.0,0.0,0.0
12:05:16,770888.0,0.0,0.0
12:05:16,770671.0,0.0,0.0
12:05:17,770920.0,0.0,0.0
12:05:17,770669.0,0.0,0.0
12:05:17,770748.0,0.0,0.0
12:05:17,770842.0,0.0,0.0
12:05:17,770654.0,0.0,0.0
12:05:17,770933.0,0.0,0.0
12:05:17,770708.0,0.0,0.0
12:05:17,770802.0,0.0,0.0
12:05:17,770886.0,0.0,0.0
12:05:17,770710.0,0.0,0.0
12:05:17,770997.0,0.0,0.0
12:05:17,770774.0,0.0,0.0
12:05:17,770874.0,0.0,0.0
12:05:17,770946.0,0.0,0.0
12:05:17,770753.0,0.0,0.0
12:05:17,771023.0,0.0,0.0
12:05:17,770811.0,0.0,0.0
12:05:17,770894.0,0.0,0.0
12:05:17,770946.0,0.0,0.0
12:05:17,770773.0,0.0,0.0
12:05:17,771067.0,0.0,0.0
12:05:17,770841.0,0.0,0.0
12:05:17,770927.0,0.0,0.0
12:05:17,770968.0,0.0,0.0
12:05:17,770759.0,0.0,0.0
12:05:17,771018.0,0.0,0.0
12:05:17,770795.0,0.0,0.0
12:05:17,770889.0,0.0,0.0
12:05:17,770968.0,0.0,0.0
12:05:17,770753.0,0.0,0.0
12:05:17,771030.0,0.0,0.0
12:05:17,770811.0,0.0,0.0
12:05:17,770900.0,0.0,0.0
12:05:17,770927.0,0.0,0.0
12:05:17,770649.0,0.0,0.0
12:05:17,770967.0,0.0,0.0
12:05:17,770811.0,0.0,0.0
12:05:17,770992.0,0.0,0.0
12:05:17,771178.0,0.0,0.0
12:05:17,770867.0,0.0,0.0
12:05:17,771038.0,0.0,0.0
12:05:17,770808.0,0.0,0.0
12:05:17,770926.0,0.0,0.0
12:05:17,770984.0,0.0,0.0
12:05:17,770768.0,0.0,0.0
12:05:17,771038.0,0.0,0.0
12:05:17,770805.0,0.0,0.0
12:05:17,770868.0,0.0,0.0
12:05:17,770941.0,0.0,0.0
12:05:17,770678.0,0.0,0.0
12:05:17,770913.0,0.0,0.0
12:05:17,770651.0,0.0,0.0
12:05:17,770728.0,0.0,0.0
12:05:17,770781.0,0.0,0.0
12:05:17,770575.0,0.0,0.0
12:05:17,770835.0,0.0,0.0
12:05:17,770591.0,0.0,0.0
12:05:17,770669.0,0.0,0.0
12:05:17,770733.0,0.0,0.0
12:05:17,770518.0,0.0,0.0
12:05:17,770798.0,0.0,0.0
12:05:17,770579.0,0.0,0.0
12:05:17,770664.0,0.0,0.0
12:05:17,770734.0,0.0,0.0
12:05:17,770536.0,0.0,0.0
12:05:17,770833.0,0.0,0.0
12:05:17,770598.0,0.0,0.0
12:05:17,770683.0,0.0,0.0
12:05:17,770741.0,0.0,0.0
12:05:17,770538.0,0.0,0.0
12:05:17,770826.0,0.0,0.0
12:05:17,770603.0,0.0,0.0
12:05:17,770684.0,0.0,0.0
12:05:17,770737.0,0.0,0.0
12:05:17,770534.0,0.0,0.0
12:05:17,770781.0,0.0,0.0
12:05:17,770574.0,0.0,0.0
12:05:17,770705.0,0.0,0.0
12:05:17,770759.0,0.0,0.0
12:05:17,770531.0,0.0,0.0
12:05:17,770780.0,0.0,0.0
12:05:17,770549.0,0.0,0.0
12:05:17,770664.0,0.0,0.0
12:05:17,770718.0,0.0,0.0
12:05:17,770509.0,0.0,0.0
12:05:17,770764.0,0.0,0.0
12:05:17,770538.0,0.0,0.0
12:05:17,770647.0,0.0,0.0
12:05:17,770741.0,0.0,0.0
12:05:17,770514.0,0.0,0.0
12:05:17,770750.0,0.0,0.0
12:05:17,770488.0,0.0,0.0
12:05:17,770618.0,0.0,0.0
12:05:17,770675.0,0.0,0.0
12:05:17,770483.0,0.0,0.0
12:05:17,770728.0,0.0,0.0
12:05:17,770443.0,0.0,0.0
12:05:17,770559.0,0.0,0.0
12:05:17,770650.0,0.0,0.0
12:05:17,770439.0,0.0,0.0
12:05:17,770723.0,0.0,0.0
12:05:17,770526.0,0.0,0.0
12:05:17,770655.0,0.0,0.0
12:05:17,770721.0,0.0,0.0
12:05:17,770506.0,0.0,0.0
12:05:17,770816.0,0.0,0.0
12:05:17,770579.0,0.0,0.0
12:05:17,770689.0,0.0,0.0
12:05:17,770753.0,0.0,0.0
12:05:17,770504.0,0.0,0.0
12:05:17,770771.0,0.0,0.0
12:05:17,770544.0,0.0,0.0
12:05:17,770616.0,0.0,0.0
12:05:17,770675.0,0.0,0.0
12:05:17,770463.0,0.0,0.0
12:05:17,770722.0,0.0,0.0
12:05:17,770516.0,0.0,0.0
12:05:17,770634.0,0.0,0.0
12:05:17,770664.0,0.0,0.0
12:05:17,770440.0,0.0,0.0
12:05:17,770731.0,0.0,0.0
12:05:17,770496.0,0.0,0.0
12:05:17,770625.0,0.0,0.0
12:05:17,770699.0,0.0,0.0
12:05:17,770523.0,0.0,0.0
12:05:18,770772.0,0.0,0.0
12:05:18,770486.0,0.0,0.0
12:05:18,770554.0,0.0,0.0
12:05:18,770609.0,0.0,0.0
12:05:18,770421.0,0.0,0.0
12:05:18,770749.0,0.0,0.0
12:05:18,770656.0,0.0,0.0
12:05:18,770666.0,0.0,0.0
12:05:18,770611.0,0.0,0.0
12:05:18,770378.0,0.0,0.0
12:05:18,770639.0,0.0,0.0
12:05:18,770399.0,0.0,0.0
12:05:18,770519.0,0.0,0.0
12:05:18,770555.0,0.0,0.0
12:05:18,770324.0,0.0,0.0
12:05:18,770576.0,0.0,0.0
12:05:18,770324.0,0.0,0.0
12:05:18,770387.0,0.0,0.0
12:05:18,770370.0,0.0,0.0
12:05:18,770167.0,0.0,0.0
12:05:18,770419.0,0.0,0.0
12:05:18,770184.0,0.0,0.0
12:05:18,770282.0,0.0,0.0
12:05:18,770310.0,0.0,0.0
12:05:18,770078.0,0.0,0.0
12:05:18,770333.0,0.0,0.0
12:05:18,770100.0,0.0,0.0
12:05:18,770195.0,0.0,0.0
12:05:18,770227.0,0.0,0.0
12:05:18,770034.0,0.0,0.0
12:05:18,770297.0,0.0,0.0
12:05:18,770043.0,0.0,0.0
12:05:18,770151.0,0.0,0.0
12:05:18,770191.0,0.0,0.0
12:05:18,770031.0,0.0,0.0
12:05:18,770291.0,0.0,0.0
12:05:18,770067.0,0.0,0.0
12:05:18,770174.0,0.0,0.0
12:05:18,770207.0,0.0,0.0
12:05:18,770033.0,0.0,0.0
12:05:18,770308.0,0.0,0.0
12:05:18,770061.0,0.0,0.0
12:05:18,770186.0,0.0,0.0
12:05:18,770229.0,0.0,0.0
12:05:18,770021.0,0.0,0.0
12:05:18,770286.0,0.0,0.0
12:05:18,770030.0,0.0,0.0
12:05:18,770141.0,0.0,0.0
12:05:18,770192.0,0.0,0.0
12:05:18,769990.0,0.0,0.0
12:05:18,770259.0,0.0,0.0
12:05:18,770051.0,0.0,0.0
12:05:18,770146.0,0.0,0.0
12:05:18,770177.0,0.0,0.0
12:05:18,769996.0,0.0,0.0
12:05:18,770291.0,0.0,0.0
12:05:18,770031.0,0.0,0.0
12:05:18,770128.0,0.0,0.0
12:05:18,770161.0,0.0,0.0
12:05:18,769978.0,0.0,0.0
12:05:18,770260.0,0.0,0.0
12:05:18,770016.0,0.0,0.0
12:05:18,770153.0,0.0,0.0
12:05:18,770233.0,0.0,0.0
12:05:18,770047.0,0.0,0.0
12:05:18,770320.0,0.0,0.0
12:05:18,770101.0,0.0,0.0
12:05:18,770201.0,0.0,0.0
12:05:18,770258.0,0.0,0.0
12:05:18,770046.0,0.0,0.0
12:05:18,770323.0,0.0,0.0
12:05:18,770091.0,0.0,0.0
12:05:18,770198.0,0.0,0.0
12:05:18,770231.0,0.0,0.0
12:05:18,770056.0,0.0,0.0
12:05:18,770354.0,0.0,0.0
12:05:18,770101.0,0.0,0.0
12:05:18,770212.0,0.0,0.0
12:05:18,770256.0,0.0,0.0
12:05:18,770033.0,0.0,0.0
12:05:18,770318.0,0.0,0.0
12:05:18,770116.0,0.0,0.0
12:05:18,770253.0,0.0,0.0
12:05:18,770287.0,0.0,0.0
12:05:18,770103.0,0.0,0.0
12:05:18,770367.0,0.0,0.0
12:05:18,770122.0,0.0,0.0
12:05:18,770246.0,0.0,0.0
12:05:18,770275.0,0.0,0.0
12:05:18,770074.0,0.0,0.0
12:05:18,770379.0,0.0,0.0
12:05:18,770142.0,0.0,0.0
12:05:18,770287.0,0.0,0.0
12:05:18,770367.0,0.0,0.0
12:05:18,770176.0,0.0,0.0
12:05:18,770390.0,0.0,0.0
12:05:18,770067.0,0.0,0.0
12:05:18,770199.0,0.0,0.0
12:05:18,770269.0,0.0,0.0
12:05:18,770184.0,0.0,0.0
12:05:18,770665.0,0.0,0.0
12:05:18,770346.0,0.0,0.0
12:05:18,770324.0,0.0,0.0
12:05:18,770318.0,0.0,0.0
12:05:18,770121.0,0.0,0.0
12:05:18,770416.0,0.0,0.0
12:05:18,770160.0,0.0,0.0
12:05:18,770266.0,0.0,0.0
12:05:18,770296.0,0.0,0.0
12:05:18,770093.0,0.0,0.0
12:05:18,770329.0,0.0,0.0
12:05:18,770083.0,0.0,0.0
12:05:18,770188.0,0.0,0.0
12:05:18,770199.0,0.0,0.0
12:05:18,770028.0,0.0,0.0
12:05:18,770269.0,0.0,0.0
12:05:18,770016.0,0.0,0.0
12:05:18,770132.0,0.0,0.0
12:05:18,770158.0,0.0,0.0
12:05:18,769986.0,0.0,0.0
12:05:18,770243.0,0.0,0.0
12:05:18,769966.0,0.0,0.0
12:05:18,770109.0,0.0,0.0
12:05:18,770125.0,0.0,0.0
12:05:18,769938.0,0.0,0.0
12:05:19,770194.0,0.0,0.0
12:05:19,769903.0,0.0,0.0
12:05:19,770069.0,0.0,0.0
12:05:19,770077.0,0.0,0.0
12:05:19,769900.0,0.0,0.0
12:05:19,770157.0,0.0,0.0
12:05:19,769924.0,0.0,0.0
12:05:19,770064.0,0.0,0.0
12:05:19,770105.0,0.0,0.0
12:05:19,769898.0,0.0,0.0
12:05:19,770169.0,0.0,0.0
12:05:19,769896.0,0.0,0.0
12:05:19,770028.0,0.0,0.0
12:05:19,770044.0,0.0,0.0
12:05:19,769856.0,0.0,0.0
12:05:19,770103.0,0.0,0.0
12:05:19,769818.0,0.0,0.0
12:05:19,769959.0,0.0,0.0
12:05:19,769961.0,0.0,0.0
12:05:19,769754.0,0.0,0.0
12:05:19,770041.0,0.0,0.0
12:05:19,769781.0,0.0,0.0
12:05:19,769913.0,0.0,0.0
12:05:19,769914.0,0.0,0.0
12:05:19,769719.0,0.0,0.0
12:05:19,769987.0,0.0,0.0
12:05:19,769714.0,0.0,0.0
12:05:19,769857.0,0.0,0.0
12:05:19,769894.0,0.0,0.0
12:05:19,769694.0,0.0,0.0
12:05:19,769962.0,0.0,0.0
12:05:19,769746.0,0.0,0.0
12:05:19,769904.0,0.0,0.0
12:05:19,769897.0,0.0,0.0
12:05:19,769703.0,0.0,0.0
12:05:19,769982.0,0.0,0.0
12:05:19,769738.0,0.0,0.0
12:05:19,769888.0,0.0,0.0
12:05:19,769904.0,0.0,0.0
12:05:19,769686.0,0.0,0.0
12:05:19,769958.0,0.0,0.0
12:05:19,769713.0,0.0,0.0
12:05:19,769858.0,0.0,0.0
12:05:19,769852.0,0.0,0.0
12:05:19,769654.0,0.0,0.0
12:05:19,769897.0,0.0,0.0
12:05:19,769619.0,0.0,0.0
12:05:19,769769.0,0.0,0.0
12:05:19,769819.0,0.0,0.0
12:05:19,769652.0,0.0,0.0
12:05:19,769888.0,0.0,0.0
12:05:19,769623.0,0.0,0.0
12:05:19,769755.0,0.0,0.0
12:05:19,769790.0,0.0,0.0
12:05:19,769635.0,0.0,0.0
12:05:19,769873.0,0.0,0.0
12:05:19,769619.0,0.0,0.0
12:05:19,769783.0,0.0,0.0
12:05:19,769789.0,0.0,0.0
12:05:19,769629.0,0.0,0.0
12:05:19,769903.0,0.0,0.0
12:05:19,769613.0,0.0,0.0
12:05:19,769757.0,0.0,0.0
12:05:19,769764.0,0.0,0.0
12:05:19,769521.0,0.0,0.0
12:05:19,769767.0,0.0,0.0
12:05:19,769566.0,0.0,0.0
12:05:19,769780.0,0.0,0.0
12:05:19,769964.0,0.0,0.0
12:05:19,769730.0,0.0,0.0
12:05:19,769858.0,0.0,0.0
12:05:19,769587.0,0.0,0.0
12:05:19,769751.0,0.0,0.0
12:05:19,769743.0,0.0,0.0
12:05:19,769526.0,0.0,0.0
12:05:19,769781.0,0.0,0.0
12:05:19,769534.0,0.0,0.0
12:05:19,769681.0,0.0,0.0
12:05:19,769680.0,0.0,0.0
12:05:19,769503.0,0.0,0.0
12:05:19,769695.0,0.0,0.0
12:05:19,769454.0,0.0,0.0
12:05:19,769608.0,0.0,0.0
12:05:19,769609.0,0.0,0.0
12:05:19,769418.0,0.0,0.0
12:05:19,769704.0,0.0,0.0
12:05:19,769448.0,0.0,0.0
12:05:19,769598.0,0.0,0.0
12:05:19,769618.0,0.0,0.0
12:05:19,769438.0,0.0,0.0
12:05:19,769623.0,0.0,0.0
12:05:19,769378.0,0.0,0.0
12:05:19,769531.0,0.0,0.0
12:05:19,769545.0,0.0,0.0
12:05:19,769364.0,0.0,0.0
12:05:19,769608.0,0.0,0.0
12:05:19,769353.0,0.0,0.0
12:05:19,769523.0,0.0,0.0
12:05:19,769528.0,0.0,0.0
12:05:19,769353.0,0.0,0.0
12:05:19,769625.0,0.0,0.0
12:05:19,769350.0,0.0,0.0
12:05:19,769519.0,0.0,0.0
12:05:19,769513.0,0.0,0.0
12:05:19,769334.0,0.0,0.0
12:05:19,769588.0,0.0,0.0
12:05:19,769351.0,0.0,0.0
12:05:19,769483.0,0.0,0.0
12:05:19,769508.0,0.0,0.0
12:05:19,769343.0,0.0,0.0
12:05:19,769595.0,0.0,0.0
12:05:19,769320.0,0.0,0.0
12:05:19,769438.0,0.0,0.0
12:05:19,769437.0,0.0,0.0
12:05:19,769263.0,0.0,0.0
12:05:19,769500.0,0.0,0.0
12:05:19,769265.0,0.0,0.0
12:05:19,769401.0,0.0,0.0
12:05:19,769401.0,0.0,0.0
12:05:19,769225.0,0.0,0.0
12:05:19,769478.0,0.0,0.0
12:05:19,769189.0,0.0,0.0
12:05:19,769327.0,0.0,0.0
12:05:19,769339.0,0.0,0.0
12:05:19,769200.0,0.0,0.0
12:05:20,769425.0,0.0,0.0
12:05:20,769176.0,0.0,0.0
12:05:20,769339.0,0.0,0.0
12:05:20,769359.0,0.0,0.0
12:05:20,769189.0,0.0,0.0
12:05:20,769445.0,0.0,0.0
12:05:20,769177.0,0.0,0.0
12:05:20,769338.0,0.0,0.0
12:05:20,769360.0,0.0,0.0
12:05:20,769206.0,0.0,0.0
12:05:20,769453.0,0.0,0.0
12:05:20,769163.0,0.0,0.0
12:05:20,769345.0,0.0,0.0
12:05:20,769365.0,0.0,0.0
12:05:20,769181.0,0.0,0.0
12:05:20,769426.0,0.0,0.0
12:05:20,769187.0,0.0,0.0
12:05:20,769295.0,0.0,0.0
12:05:20,769296.0,0.0,0.0
12:05:20,769127.0,0.0,0.0
12:05:20,769408.0,0.0,0.0
12:05:20,769145.0,0.0,0.0
12:05:20,769322.0,0.0,0.0
12:05:20,769309.0,0.0,0.0
12:05:20,769138.0,0.0,0.0
12:05:20,769418.0,0.0,0.0
12:05:20,769167.0,0.0,0.0
12:05:20,769319.0,0.0,0.0
12:05:20,769348.0,0.0,0.0
12:05:20,769218.0,0.0,0.0
12:05:20,769479.0,0.0,0.0
12:05:20,769250.0,0.0,0.0
12:05:20,769364.0,0.0,0.0
12:05:20,769309.0,0.0,0.0
12:05:20,769144.0,0.0,0.0
12:05:20,769406.0,0.0,0.0
12:05:20,769184.0,0.0,0.0
12:05:20,769471.0,0.0,0.0
12:05:20,769550.0,0.0,0.0
12:05:20,769221.0,0.0,0.0
12:05:20,769425.0,0.0,0.0
12:05:20,769152.0,0.0,0.0
12:05:20,769296.0,0.0,0.0
12:05:20,769322.0,0.0,0.0
12:05:20,769162.0,0.0,0.0
12:05:20,769443.0,0.0,0.0
12:05:20,769168.0,0.0,0.0
12:05:20,769299.0,0.0,0.0
12:05:20,769238.0,0.0,0.0
12:05:20,769073.0,0.0,0.0
12:05:20,769334.0,0.0,0.0
12:05:20,769066.0,0.0,0.0
12:05:20,769227.0,0.0,0.0
12:05:20,769236.0,0.0,0.0
12:05:20,769097.0,0.0,0.0
12:05:20,769371.0,0.0,0.0
12:05:20,769076.0,0.0,0.0
12:05:20,769266.0,0.0,0.0
12:05:20,769283.0,0.0,0.0
12:05:20,769086.0,0.0,0.0
12:05:20,769335.0,0.0,0.0
12:05:20,769092.0,0.0,0.0
12:05:20,769224.0,0.0,0.0
12:05:20,769193.0,0.0,0.0
12:05:20,769059.0,0.0,0.0
12:05:20,769333.0,0.0,0.0
12:05:20,769051.0,0.0,0.0
12:05:20,769188.0,0.0,0.0
12:05:20,769201.0,0.0,0.0
12:05:20,769043.0,0.0,0.0
12:05:20,769315.0,0.0,0.0
12:05:20,769031.0,0.0,0.0
12:05:20,769165.0,0.0,0.0
12:05:20,769106.0,0.0,0.0
12:05:20,768959.0,0.0,0.0
12:05:20,769208.0,0.0,0.0
12:05:20,768934.0,0.0,0.0
12:05:20,769111.0,0.0,0.0
12:05:20,769070.0,0.0,0.0
12:05:20,768906.0,0.0,0.0
12:05:20,769195.0,0.0,0.0
12:05:20,768888.0,0.0,0.0
12:05:20,769047.0,0.0,0.0
12:05:20,769040.0,0.0,0.0
12:05:20,768848.0,0.0,0.0
12:05:20,769116.0,0.0,0.0
12:05:20,768888.0,0.0,0.0
12:05:20,769048.0,0.0,0.0
12:05:20,768993.0,0.0,0.0
12:05:20,768857.0,0.0,0.0
12:05:20,769129.0,0.0,0.0
12:05:20,768809.0,0.0,0.0
12:05:20,768994.0,0.0,0.0
12:05:20,768998.0,0.0,0.0
12:05:20,768816.0,0.0,0.0
12:05:20,769069.0,0.0,0.0
12:05:20,768808.0,0.0,0.0
12:05:20,768965.0,0.0,0.0
12:05:20,768949.0,0.0,0.0
12:05:20,768815.0,0.0,0.0
12:05:20,769101.0,0.0,0.0
12:05:20,768840.0,0.0,0.0
12:05:20,769022.0,0.0,0.0
12:05:20,768989.0,0.0,0.0
12:05:20,768874.0,0.0,0.0
12:05:20,769100.0,0.0,0.0
12:05:20,768852.0,0.0,0.0
12:05:20,769020.0,0.0,0.0
12:05:20,768975.0,0.0,0.0
12:05:20,768839.0,0.0,0.0
12:05:20,769093.0,0.0,0.0
12:05:20,768835.0,0.0,0.0
12:05:20,769014.0,0.0,0.0
12:05:20,768985.0,0.0,0.0
12:05:20,768853.0,0.0,0.0
12:05:20,769118.0,0.0,0.0
12:05:20,768883.0,0.0,0.0
12:05:20,769078.0,0.0,0.0
12:05:20,769053.0,0.0,0.0
12:05:20,768903.0,0.0,0.0
12:05:20,769155.0,0.0,0.0
12:05:20,768889.0,0.0,0.0
12:05:20,769042.0,0.0,0.0
12:05:20,769038.0,0.0,0.0
12:05:20,768944.0,0.0,0.0
12:05:21,769202.0,0.0,0.0
12:05:21,768938.0,0.0,0.0
12:05:21,769106.0,0.0,0.0
12:05:21,769046.0,0.0,0.0
12:05:21,768834.0,0.0,0.0
12:05:21,769103.0,0.0,0.0
12:05:21,768913.0,0.0,0.0
12:05:21,769215.0,0.0,0.0
12:05:21,769321.0,0.0,0.0
12:05:21,769069.0,0.0,0.0
12:05:21,769217.0,0.0,0.0
12:05:21,768941.0,0.0,0.0
12:05:21,769121.0,0.0,0.0
12:05:21,769073.0,0.0,0.0
12:05:21,768938.0,0.0,0.0
12:05:21,769203.0,0.0,0.0
12:05:21,768943.0,0.0,0.0
12:05:21,769114.0,0.0,0.0
12:05:21,769056.0,0.0,0.0
12:05:21,768873.0,0.0,0.0
12:05:21,769098.0,0.0,0.0
12:05:21,768861.0,0.0,0.0
12:05:21,769038.0,0.0,0.0
12:05:21,768995.0,0.0,0.0
12:05:21,768885.0,0.0,0.0
12:05:21,769143.0,0.0,0.0
12:05:21,768889.0,0.0,0.0
12:05:21,769055.0,0.0,0.0
12:05:21,769031.0,0.0,0.0
12:05:21,768873.0,0.0,0.0
12:05:21,769134.0,0.0,0.0
12:05:21,768839.0,0.0,0.0
12:05:21,769044.0,0.0,0.0
12:05:21,769041.0,0.0,0.0
12:05:21,768904.0,0.0,0.0
12:05:21,769151.0,0.0,0.0
12:05:21,768923.0,0.0,0.0
12:05:21,769069.0,0.0,0.0
12:05:21,769034.0,0.0,0.0
12:05:21,768938.0,0.0,0.0
12:05:21,769188.0,0.0,0.0
12:05:21,768901.0,0.0,0.0
12:05:21,769111.0,0.0,0.0
12:05:21,769098.0,0.0,0.0
12:05:21,768941.0,0.0,0.0
12:05:21,769219.0,0.0,0.0
12:05:21,768953.0,0.0,0.0
12:05:21,769167.0,0.0,0.0
12:05:21,769133.0,0.0,0.0
12:05:21,768982.0,0.0,0.0
12:05:21,769202.0,0.0,0.0
12:05:21,768903.0,0.0,0.0
12:05:21,769084.0,0.0,0.0
12:05:21,769061.0,0.0,0.0
12:05:21,768929.0,0.0,0.0
12:05:21,769162.0,0.0,0.0
12:05:21,768893.0,0.0,0.0
12:05:21,769094.0,0.0,0.0
12:05:21,769081.0,0.0,0.0
12:05:21,768936.0,0.0,0.0
12:05:21,769226.0,0.0,0.0
12:05:21,768960.0,0.0,0.0
12:05:21,769126.0,0.0,0.0
12:05:21,769079.0,0.0,0.0
12:05:21,768911.0,0.0,0.0
12:05:21,769148.0,0.0,0.0
12:05:21,768869.0,0.0,0.0
12:05:21,769031.0,0.0,0.0
12:05:21,768999.0,0.0,0.0
12:05:21,768878.0,0.0,0.0
12:05:21,769120.0,0.0,0.0
12:05:21,768839.0,0.0,0.0
12:05:21,768993.0,0.0,0.0
12:05:21,768971.0,0.0,0.0
12:05:21,768868.0,0.0,0.0
12:05:21,769084.0,0.0,0.0
12:05:21,768819.0,0.0,0.0
12:05:21,768987.0,0.0,0.0
12:05:21,768924.0,0.0,0.0
12:05:21,768779.0,0.0,0.0
12:05:21,769001.0,0.0,0.0
12:05:21,768712.0,0.0,0.0
12:05:21,768849.0,0.0,0.0
12:05:21,768787.0,0.0,0.0
12:05:21,768672.0,0.0,0.0
12:05:21,768902.0,0.0,0.0
12:05:21,768618.0,0.0,0.0
12:05:21,768764.0,0.0,0.0
12:05:21,768686.0,0.0,0.0
12:05:21,768549.0,0.0,0.0
12:05:21,768766.0,0.0,0.0
12:05:21,768480.0,0.0,0.0
12:05:21,768648.0,0.0,0.0
12:05:21,768585.0,0.0,0.0
12:05:21,768475.0,0.0,0.0
12:05:21,768736.0,0.0,0.0
12:05:21,768461.0,0.0,0.0
12:05:21,768595.0,0.0,0.0
12:05:21,768483.0,0.0,0.0
12:05:21,768215.0,0.0,0.0
12:05:21,768391.0,0.0,0.0
12:05:21,768131.0,0.0,0.0
12:05:21,768354.0,0.0,0.0
12:05:21,768476.0,0.0,0.0
12:05:21,768309.0,0.0,0.0
12:05:21,768401.0,0.0,0.0
12:05:21,768090.0,0.0,0.0
12:05:21,768315.0,0.0,0.0
12:05:21,768266.0,0.0,0.0
12:05:21,768134.0,0.0,0.0
12:05:21,768376.0,0.0,0.0
12:05:21,768066.0,0.0,0.0
12:05:21,768173.0,0.0,0.0
12:05:21,768099.0,0.0,0.0
12:05:21,767923.0,0.0,0.0
12:05:21,768086.0,0.0,0.0
12:05:21,767796.0,0.0,0.0
12:05:21,767983.0,0.0,0.0
12:05:21,767933.0,0.0,0.0
12:05:21,767824.0,0.0,0.0
12:05:21,768089.0,0.0,0.0
12:05:21,767860.0,0.0,0.0
12:05:21,768039.0,0.0,0.0
12:05:21,767961.0,0.0,0.0
12:05:21,767834.0,0.0,0.0
12:05:22,768027.0,0.0,0.0
12:05:22,767706.0,0.0,0.0
12:05:22,767853.0,0.0,0.0
12:05:22,767789.0,0.0,0.0
12:05:22,767648.0,0.0,0.0
12:05:22,767888.0,0.0,0.0
12:05:22,767604.0,0.0,0.0
12:05:22,767799.0,0.0,0.0
12:05:22,767778.0,0.0,0.0
12:05:22,767665.0,0.0,0.0
12:05:22,767916.0,0.0,0.0
12:05:22,767651.0,0.0,0.0
12:05:22,767835.0,0.0,0.0
12:05:22,767781.0,0.0,0.0
12:05:22,767644.0,0.0,0.0
12:05:22,767880.0,0.0,0.0
12:05:22,767596.0,0.0,0.0
12:05:22,767794.0,0.0,0.0
12:05:22,767728.0,0.0,0.0
12:05:22,767601.0,0.0,0.0
12:05:22,767842.0,0.0,0.0
12:05:22,767532.0,0.0,0.0
12:05:22,767706.0,0.0,0.0
12:05:22,767674.0,0.0,0.0
12:05:22,767549.0,0.0,0.0
12:05:22,767763.0,0.0,0.0
12:05:22,767508.0,0.0,0.0
12:05:22,767723.0,0.0,0.0
12:05:22,767622.0,0.0,0.0
12:05:22,767509.0,0.0,0.0
12:05:22,767764.0,0.0,0.0
12:05:22,767484.0,0.0,0.0
12:05:22,767722.0,0.0,0.0
12:05:22,767697.0,0.0,0.0
12:05:22,767597.0,0.0,0.0
12:05:22,767852.0,0.0,0.0
12:05:22,767603.0,0.0,0.0
12:05:22,767802.0,0.0,0.0
12:05:22,767753.0,0.0,0.0
12:05:22,767630.0,0.0,0.0
12:05:22,767848.0,0.0,0.0
12:05:22,767566.0,0.0,0.0
12:05:22,767750.0,0.0,0.0
12:05:22,767713.0,0.0,0.0
12:05:22,767593.0,0.0,0.0
12:05:22,767843.0,0.0,0.0
12:05:22,767591.0,0.0,0.0
12:05:22,767766.0,0.0,0.0
12:05:22,767734.0,0.0,0.0
12:05:22,767619.0,0.0,0.0
12:05:22,767794.0,0.0,0.0
12:05:22,767483.0,0.0,0.0
12:05:22,767656.0,0.0,0.0
12:05:22,767584.0,0.0,0.0
12:05:22,767461.0,0.0,0.0
12:05:22,767701.0,0.0,0.0
12:05:22,767424.0,0.0,0.0
12:05:22,767619.0,0.0,0.0
12:05:22,767611.0,0.0,0.0
12:05:22,767524.0,0.0,0.0
12:05:22,767759.0,0.0,0.0
12:05:22,767521.0,0.0,0.0
12:05:22,767725.0,0.0,0.0
12:05:22,767663.0,0.0,0.0
12:05:22,767595.0,0.0,0.0
12:05:22,767829.0,0.0,0.0
12:05:22,767565.0,0.0,0.0
12:05:22,767789.0,0.0,0.0
12:05:22,767741.0,0.0,0.0
12:05:22,767646.0,0.0,0.0
12:05:22,767835.0,0.0,0.0
12:05:22,767521.0,0.0,0.0
12:05:22,767732.0,0.0,0.0
12:05:22,767702.0,0.0,0.0
12:05:22,767626.0,0.0,0.0
12:05:22,768039.0,0.0,0.0
12:05:22,767784.0,0.0,0.0
12:05:22,767819.0,0.0,0.0
12:05:22,767728.0,0.0,0.0
12:05:22,767639.0,0.0,0.0
12:05:22,767882.0,0.0,0.0
12:05:22,767657.0,0.0,0.0
12:05:22,767859.0,0.0,0.0
12:05:22,767805.0,0.0,0.0
12:05:22,767704.0,0.0,0.0
12:05:22,767907.0,0.0,0.0
12:05:22,767609.0,0.0,0.0
12:05:22,767783.0,0.0,0.0
12:05:22,767705.0,0.0,0.0
12:05:22,767615.0,0.0,0.0
12:05:22,767809.0,0.0,0.0
12:05:22,767531.0,0.0,0.0
12:05:22,767750.0,0.0,0.0
12:05:22,767694.0,0.0,0.0
12:05:22,767615.0,0.0,0.0
12:05:22,767843.0,0.0,0.0
12:05:22,767560.0,0.0,0.0
12:05:22,767760.0,0.0,0.0
12:05:22,767663.0,0.0,0.0
12:05:22,767556.0,0.0,0.0
12:05:22,767769.0,0.0,0.0
12:05:22,767505.0,0.0,0.0
12:05:22,767690.0,0.0,0.0
12:05:22,767644.0,0.0,0.0
12:05:22,767541.0,0.0,0.0
12:05:22,767758.0,0.0,0.0
12:05:22,767503.0,0.0,0.0
12:05:22,767706.0,0.0,0.0
12:05:22,767666.0,0.0,0.0
12:05:22,767555.0,0.0,0.0
12:05:22,767765.0,0.0,0.0
12:05:22,767525.0,0.0,0.0
12:05:22,767756.0,0.0,0.0
12:05:22,767685.0,0.0,0.0
12:05:22,767549.0,0.0,0.0
12:05:22,767758.0,0.0,0.0
12:05:22,767498.0,0.0,0.0
12:05:22,767692.0,0.0,0.0
12:05:22,767643.0,0.0,0.0
12:05:22,767529.0,0.0,0.0
12:05:22,767790.0,0.0,0.0
12:05:22,767551.0,0.0,0.0
12:05:22,767756.0,0.0,0.0
12:05:22,767588.0,0.0,0.0
12:05:22,767263.0,0.0,0.0
12:05:23,767836.0,0.0,0.0
12:05:23,767633.0,0.0,0.0
12:05:23,767849.0,0.0,0.0
12:05:23,767737.0,0.0,0.0
12:05:23,767633.0,0.0,0.0
12:05:23,767856.0,0.0,0.0
12:05:23,767569.0,0.0,0.0
12:05:23,767773.0,0.0,0.0
12:05:23,767684.0,0.0,0.0
12:05:23,767550.0,0.0,0.0
12:05:23,767784.0,0.0,0.0
12:05:23,767526.0,0.0,0.0
12:05:23,767758.0,0.0,0.0
12:05:23,767711.0,0.0,0.0
12:05:23,767626.0,0.0,0.0
12:05:23,767876.0,0.0,0.0
12:05:23,767630.0,0.0,0.0
12:05:23,767833.0,0.0,0.0
12:05:23,767771.0,0.0,0.0
12:05:23,767698.0,0.0,0.0
12:05:23,767944.0,0.0,0.0
12:05:23,767676.0,0.0,0.0
12:05:23,767883.0,0.0,0.0
12:05:23,767823.0,0.0,0.0
12:05:23,767733.0,0.0,0.0
12:05:23,767963.0,0.0,0.0
12:05:23,767694.0,0.0,0.0
12:05:23,767853.0,0.0,0.0
12:05:23,767759.0,0.0,0.0
12:05:23,767682.0,0.0,0.0
12:05:23,767923.0,0.0,0.0
12:05:23,767652.0,0.0,0.0
12:05:23,767866.0,0.0,0.0
12:05:23,767825.0,0.0,0.0
12:05:23,767771.0,0.0,0.0
12:05:23,767993.0,0.0,0.0
12:05:23,767706.0,0.0,0.0
12:05:23,767947.0,0.0,0.0
12:05:23,767850.0,0.0,0.0
12:05:23,767754.0,0.0,0.0
12:05:23,768011.0,0.0,0.0
12:05:23,767731.0,0.0,0.0
12:05:23,767963.0,0.0,0.0
12:05:23,767891.0,0.0,0.0
12:05:23,767812.0,0.0,0.0
12:05:23,767989.0,0.0,0.0
12:05:23,767649.0,0.0,0.0
12:05:23,767890.0,0.0,0.0
12:05:23,767871.0,0.0,0.0
12:05:23,767914.0,0.0,0.0
12:05:23,768221.0,0.0,0.0
12:05:23,767772.0,0.0,0.0
12:05:23,767908.0,0.0,0.0
12:05:23,767833.0,0.0,0.0
12:05:23,767744.0,0.0,0.0
12:05:23,767975.0,0.0,0.0
12:05:23,767709.0,0.0,0.0
12:05:23,767929.0,0.0,0.0
12:05:23,767847.0,0.0,0.0
12:05:23,767746.0,0.0,0.0
12:05:23,767934.0,0.0,0.0
12:05:23,767654.0,0.0,0.0
12:05:23,767870.0,0.0,0.0
12:05:23,767781.0,0.0,0.0
12:05:23,767704.0,0.0,0.0
12:05:23,767895.0,0.0,0.0
12:05:23,767594.0,0.0,0.0
12:05:23,767831.0,0.0,0.0
12:05:23,767761.0,0.0,0.0
12:05:23,767634.0,0.0,0.0
12:05:23,767874.0,0.0,0.0
12:05:23,767608.0,0.0,0.0
12:05:23,767800.0,0.0,0.0
12:05:23,767713.0,0.0,0.0
12:05:23,767646.0,0.0,0.0
12:05:23,767864.0,0.0,0.0
12:05:23,767593.0,0.0,0.0
12:05:23,767807.0,0.0,0.0
12:05:23,767778.0,0.0,0.0
12:05:23,767678.0,0.0,0.0
12:05:23,767880.0,0.0,0.0
12:05:23,767619.0,0.0,0.0
12:05:23,767854.0,0.0,0.0
12:05:23,767749.0,0.0,0.0
12:05:23,767660.0,0.0,0.0
12:05:23,767856.0,0.0,0.0
12:05:23,767580.0,0.0,0.0
12:05:23,767809.0,0.0,0.0
12:05:23,767743.0,0.0,0.0
12:05:23,767658.0,0.0,0.0
12:05:23,767879.0,0.0,0.0
12:05:23,767616.0,0.0,0.0
12:05:23,767829.0,0.0,0.0
12:05:23,767711.0,0.0,0.0
12:05:23,767622.0,0.0,0.0
12:05:23,767857.0,0.0,0.0
12:05:23,767604.0,0.0,0.0
12:05:23,767827.0,0.0,0.0
12:05:23,767726.0,0.0,0.0
12:05:23,767688.0,0.0,0.0
12:05:23,767905.0,0.0,0.0
12:05:23,767608.0,0.0,0.0
12:05:23,767827.0,0.0,0.0
12:05:23,767740.0,0.0,0.0
12:05:23,767649.0,0.0,0.0
12:05:23,767903.0,0.0,0.0
12:05:23,767609.0,0.0,0.0
12:05:23,767836.0,0.0,0.0
12:05:23,767730.0,0.0,0.0
12:05:23,767673.0,0.0,0.0
12:05:23,767892.0,0.0,0.0
12:05:23,767583.0,0.0,0.0
12:05:23,767821.0,0.0,0.0
12:05:23,767727.0,0.0,0.0
12:05:23,767644.0,0.0,0.0
12:05:23,767883.0,0.0,0.0
12:05:23,767630.0,0.0,0.0
12:05:23,767839.0,0.0,0.0
12:05:23,767758.0,0.0,0.0
12:05:23,767676.0,0.0,0.0
12:05:23,767918.0,0.0,0.0
12:05:23,767621.0,0.0,0.0
12:05:23,767833.0,0.0,0.0
12:05:23,767721.0,0.0,0.0
12:05:23,767639.0,0.0,0.0
12:05:24,767859.0,0.0,0.0
12:05:24,767583.0,0.0,0.0
12:05:24,767761.0,0.0,0.0
12:05:24,767620.0,0.0,0.0
12:05:24,767548.0,0.0,0.0
12:05:24,767776.0,0.0,0.0
12:05:24,767503.0,0.0,0.0
12:05:24,767725.0,0.0,0.0
12:05:24,767604.0,0.0,0.0
12:05:24,767539.0,0.0,0.0
12:05:24,767771.0,0.0,0.0
12:05:24,767488.0,0.0,0.0
12:05:24,767724.0,0.0,0.0
12:05:24,767616.0,0.0,0.0
12:05:24,767531.0,0.0,0.0
12:05:24,767759.0,0.0,0.0
12:05:24,767473.0,0.0,0.0
12:05:24,767678.0,0.0,0.0
12:05:24,767589.0,0.0,0.0
12:05:24,767533.0,0.0,0.0
12:05:24,767777.0,0.0,0.0
12:05:24,767468.0,0.0,0.0
12:05:24,767585.0,0.0,0.0
12:05:24,767434.0,0.0,0.0
12:05:24,767378.0,0.0,0.0
12:05:24,767669.0,0.0,0.0
12:05:24,767545.0,0.0,0.0
12:05:24,767747.0,0.0,0.0
12:05:24,767474.0,0.0,0.0
12:05:24,767331.0,0.0,0.0
12:05:24,767579.0,0.0,0.0
12:05:24,767298.0,0.0,0.0
12:05:24,767496.0,0.0,0.0
12:05:24,767413.0,0.0,0.0
12:05:24,767327.0,0.0,0.0
12:05:24,767524.0,0.0,0.0
12:05:24,767206.0,0.0,0.0
12:05:24,767414.0,0.0,0.0
12:05:24,767273.0,0.0,0.0
12:05:24,767181.0,0.0,0.0
12:05:24,767410.0,0.0,0.0
12:05:24,767099.0,0.0,0.0
12:05:24,767306.0,0.0,0.0
12:05:24,767225.0,0.0,0.0
12:05:24,767154.0,0.0,0.0
12:05:24,767406.0,0.0,0.0
12:05:24,767111.0,0.0,0.0
12:05:24,767308.0,0.0,0.0
12:05:24,767246.0,0.0,0.0
12:05:24,767133.0,0.0,0.0
12:05:24,767311.0,0.0,0.0
12:05:24,767028.0,0.0,0.0
12:05:24,767219.0,0.0,0.0
12:05:24,767138.0,0.0,0.0
12:05:24,767073.0,0.0,0.0
12:05:24,767286.0,0.0,0.0
12:05:24,767007.0,0.0,0.0
12:05:24,767249.0,0.0,0.0
12:05:24,767148.0,0.0,0.0
12:05:24,767058.0,0.0,0.0
12:05:24,767270.0,0.0,0.0
12:05:24,766994.0,0.0,0.0
12:05:24,767207.0,0.0,0.0
12:05:24,767103.0,0.0,0.0
12:05:24,767037.0,0.0,0.0
12:05:24,767265.0,0.0,0.0
12:05:24,766984.0,0.0,0.0
12:05:24,767195.0,0.0,0.0
12:05:24,767098.0,0.0,0.0
12:05:24,767023.0,0.0,0.0
12:05:24,767257.0,0.0,0.0
12:05:24,766955.0,0.0,0.0
12:05:24,767163.0,0.0,0.0
12:05:24,767079.0,0.0,0.0
12:05:24,767013.0,0.0,0.0
12:05:24,767234.0,0.0,0.0
12:05:24,766941.0,0.0,0.0
12:05:24,767119.0,0.0,0.0
12:05:24,767040.0,0.0,0.0
12:05:24,766964.0,0.0,0.0
12:05:24,767190.0,0.0,0.0
12:05:24,766923.0,0.0,0.0
12:05:24,767139.0,0.0,0.0
12:05:24,767041.0,0.0,0.0
12:05:24,766958.0,0.0,0.0
12:05:24,767199.0,0.0,0.0
12:05:24,766903.0,0.0,0.0
12:05:24,767124.0,0.0,0.0
12:05:24,767043.0,0.0,0.0
12:05:24,766944.0,0.0,0.0
12:05:24,767199.0,0.0,0.0
12:05:24,766933.0,0.0,0.0
12:05:24,767129.0,0.0,0.0
12:05:24,767086.0,0.0,0.0
12:05:24,767016.0,0.0,0.0
12:05:24,767236.0,0.0,0.0
12:05:24,766975.0,0.0,0.0
12:05:24,767180.0,0.0,0.0
12:05:24,767083.0,0.0,0.0
12:05:24,767010.0,0.0,0.0
12:05:24,767246.0,0.0,0.0
12:05:24,766918.0,0.0,0.0
12:05:24,767167.0,0.0,0.0
12:05:24,767113.0,0.0,0.0
12:05:24,767047.0,0.0,0.0
12:05:24,767238.0,0.0,0.0
12:05:24,766962.0,0.0,0.0
12:05:24,767194.0,0.0,0.0
12:05:24,767101.0,0.0,0.0
12:05:24,766996.0,0.0,0.0
12:05:24,767234.0,0.0,0.0
12:05:24,766948.0,0.0,0.0
12:05:24,767186.0,0.0,0.0
12:05:24,767088.0,0.0,0.0
12:05:24,767001.0,0.0,0.0
12:05:24,767234.0,0.0,0.0
12:05:24,766942.0,0.0,0.0
12:05:24,767199.0,0.0,0.0
12:05:24,767068.0,0.0,0.0
12:05:24,767006.0,0.0,0.0
12:05:24,767252.0,0.0,0.0
12:05:24,766950.0,0.0,0.0
12:05:24,767160.0,0.0,0.0
12:05:24,767051.0,0.0,0.0
12:05:24,766954.0,0.0,0.0
12:05:25,767141.0,0.0,0.0
12:05:25,766816.0,0.0,0.0
12:05:25,767077.0,0.0,0.0
12:05:25,766991.0,0.0,0.0
12:05:25,767009.0,0.0,0.0
12:05:25,767388.0,0.0,0.0
12:05:25,767004.0,0.0,0.0
12:05:25,767083.0,0.0,0.0
12:05:25,766964.0,0.0,0.0
12:05:25,766906.0,0.0,0.0
12:05:25,767111.0,0.0,0.0
12:05:25,766851.0,0.0,0.0
12:05:25,767055.0,0.0,0.0
12:05:25,766948.0,0.0,0.0
12:05:25,766887.0,0.0,0.0
12:05:25,767106.0,0.0,0.0
12:05:25,766804.0,0.0,0.0
12:05:25,767041.0,0.0,0.0
12:05:25,766919.0,0.0,0.0
12:05:25,766829.0,0.0,0.0
12:05:25,767058.0,0.0,0.0
12:05:25,766783.0,0.0,0.0
12:05:25,767025.0,0.0,0.0
12:05:25,766921.0,0.0,0.0
12:05:25,766863.0,0.0,0.0
12:05:25,767085.0,0.0,0.0
12:05:25,766741.0,0.0,0.0
12:05:25,766953.0,0.0,0.0
12:05:25,766870.0,0.0,0.0
12:05:25,766775.0,0.0,0.0
12:05:25,766979.0,0.0,0.0
12:05:25,766696.0,0.0,0.0
12:05:25,766923.0,0.0,0.0
12:05:25,766816.0,0.0,0.0
12:05:25,766775.0,0.0,0.0
12:05:25,766998.0,0.0,0.0
12:05:25,766713.0,0.0,0.0
12:05:25,766969.0,0.0,0.0
12:05:25,766873.0,0.0,0.0
12:05:25,766775.0,0.0,0.0
12:05:25,766988.0,0.0,0.0
12:05:25,766767.0,0.0,0.0
12:05:25,766968.0,0.0,0.0
12:05:25,766848.0,0.0,0.0
12:05:25,766723.0,0.0,0.0
12:05:25,766947.0,0.0,0.0
12:05:25,766653.0,0.0,0.0
12:05:25,766877.0,0.0,0.0
12:05:25,766786.0,0.0,0.0
12:05:25,766709.0,0.0,0.0
12:05:25,766904.0,0.0,0.0
12:05:25,766612.0,0.0,0.0
12:05:25,766824.0,0.0,0.0
12:05:25,766750.0,0.0,0.0
12:05:25,766697.0,0.0,0.0
12:05:25,766920.0,0.0,0.0
12:05:25,766634.0,0.0,0.0
12:05:25,766888.0,0.0,0.0
12:05:25,766815.0,0.0,0.0
12:05:25,766733.0,0.0,0.0
12:05:25,766977.0,0.0,0.0
12:05:25,766705.0,0.0,0.0
12:05:25,766931.0,0.0,0.0
12:05:25,766854.0,0.0,0.0
12:05:25,766794.0,0.0,0.0
12:05:25,767007.0,0.0,0.0
12:05:25,766747.0,0.0,0.0
12:05:25,766983.0,0.0,0.0
12:05:25,766869.0,0.0,0.0
12:05:25,766788.0,0.0,0.0
12:05:25,766998.0,0.0,0.0
12:05:25,766714.0,0.0,0.0
12:05:25,766967.0,0.0,0.0
12:05:25,766846.0,0.0,0.0
12:05:25,766791.0,0.0,0.0
12:05:25,767020.0,0.0,0.0
12:05:25,766727.0,0.0,0.0
12:05:25,766974.0,0.0,0.0
12:05:25,766889.0,0.0,0.0
12:05:25,766831.0,0.0,0.0
12:05:25,767049.0,0.0,0.0
12:05:25,766773.0,0.0,0.0
12:05:25,767030.0,0.0,0.0
12:05:25,766917.0,0.0,0.0
12:05:25,766793.0,0.0,0.0
12:05:25,767019.0,0.0,0.0
12:05:25,766748.0,0.0,0.0
12:05:25,766972.0,0.0,0.0
12:05:25,766844.0,0.0,0.0
12:05:25,766786.0,0.0,0.0
12:05:25,766985.0,0.0,0.0
12:05:25,766722.0,0.0,0.0
12:05:25,766969.0,0.0,0.0
12:05:25,766858.0,0.0,0.0
12:05:25,766803.0,0.0,0.0
12:05:25,767043.0,0.0,0.0
12:05:25,766766.0,0.0,0.0
12:05:25,767010.0,0.0,0.0
12:05:25,766911.0,0.0,0.0
12:05:25,766836.0,0.0,0.0
12:05:25,767024.0,0.0,0.0
12:05:25,766734.0,0.0,0.0
12:05:25,766988.0,0.0,0.0
12:05:25,766833.0,0.0,0.0
12:05:25,766673.0,0.0,0.0
12:05:25,766868.0,0.0,0.0
12:05:25,766612.0,0.0,0.0
12:05:25,766921.0,0.0,0.0
12:05:25,767026.0,0.0,0.0
12:05:25,766953.0,0.0,0.0
12:05:25,767013.0,0.0,0.0
12:05:25,766694.0,0.0,0.0
12:05:25,766902.0,0.0,0.0
12:05:25,766813.0,0.0,0.0
12:05:25,766756.0,0.0,0.0
12:05:25,766973.0,0.0,0.0
12:05:25,766718.0,0.0,0.0
12:05:25,766935.0,0.0,0.0
12:05:25,766790.0,0.0,0.0
12:05:25,766672.0,0.0,0.0
12:05:25,766884.0,0.0,0.0
12:05:25,766626.0,0.0,0.0
12:05:25,766858.0,0.0,0.0
12:05:25,766743.0,0.0,0.0
12:05:26,766686.0,0.0,0.0
12:05:26,766933.0,0.0,0.0
12:05:26,766681.0,0.0,0.0
12:05:26,766909.0,0.0,0.0
12:05:26,766781.0,0.0,0.0
12:05:26,766688.0,0.0,0.0
12:05:26,766867.0,0.0,0.0
12:05:26,766569.0,0.0,0.0
12:05:26,766789.0,0.0,0.0
12:05:26,766669.0,0.0,0.0
12:05:26,766616.0,0.0,0.0
12:05:26,766817.0,0.0,0.0
12:05:26,766518.0,0.0,0.0
12:05:26,766789.0,0.0,0.0
12:05:26,766686.0,0.0,0.0
12:05:26,766626.0,0.0,0.0
12:05:26,766836.0,0.0,0.0
12:05:26,766593.0,0.0,0.0
12:05:26,766863.0,0.0,0.0
12:05:26,766768.0,0.0,0.0
12:05:26,766691.0,0.0,0.0
12:05:26,766927.0,0.0,0.0
12:05:26,766670.0,0.0,0.0
12:05:26,766928.0,0.0,0.0
12:05:26,766813.0,0.0,0.0
12:05:26,766724.0,0.0,0.0
12:05:26,766936.0,0.0,0.0
12:05:26,766656.0,0.0,0.0
12:05:26,766891.0,0.0,0.0
12:05:26,766790.0,0.0,0.0
12:05:26,766699.0,0.0,0.0
12:05:26,766905.0,0.0,0.0
12:05:26,766661.0,0.0,0.0
12:05:26,766893.0,0.0,0.0
12:05:26,766806.0,0.0,0.0
12:05:26,766728.0,0.0,0.0
12:05:26,766937.0,0.0,0.0
12:05:26,766673.0,0.0,0.0
12:05:26,766890.0,0.0,0.0
12:05:26,766769.0,0.0,0.0
12:05:26,766712.0,0.0,0.0
12:05:26,766924.0,0.0,0.0
12:05:26,766621.0,0.0,0.0
12:05:26,766836.0,0.0,0.0
12:05:26,766754.0,0.0,0.0
12:05:26,766684.0,0.0,0.0
12:05:26,766898.0,0.0,0.0
12:05:26,766639.0,0.0,0.0
12:05:26,766884.0,0.0,0.0
12:05:26,766769.0,0.0,0.0
12:05:26,766691.0,0.0,0.0
12:05:26,766890.0,0.0,0.0
12:05:26,766649.0,0.0,0.0
12:05:26,766869.0,0.0,0.0
12:05:26,766794.0,0.0,0.0
12:05:26,766782.0,0.0,0.0
12:05:26,766956.0,0.0,0.0
12:05:26,766664.0,0.0,0.0
12:05:26,766941.0,0.0,0.0
12:05:26,766784.0,0.0,0.0
12:05:26,766701.0,0.0,0.0
12:05:26,766904.0,0.0,0.0
12:05:26,766598.0,0.0,0.0
12:05:26,766855.0,0.0,0.0
12:05:26,766697.0,0.0,0.0
12:05:26,766668.0,0.0,0.0
12:05:26,766888.0,0.0,0.0
12:05:26,766598.0,0.0,0.0
12:05:26,766816.0,0.0,0.0
12:05:26,766731.0,0.0,0.0
12:05:26,766690.0,0.0,0.0
12:05:26,766849.0,0.0,0.0
12:05:26,766536.0,0.0,0.0
12:05:26,766838.0,0.0,0.0
12:05:26,766728.0,0.0,0.0
12:05:26,766673.0,0.0,0.0
12:05:26,766873.0,0.0,0.0
12:05:26,766583.0,0.0,0.0
12:05:26,766822.0,0.0,0.0
12:05:26,766671.0,0.0,0.0
12:05:26,766521.0,0.0,0.0
12:05:26,766647.0,0.0,0.0
12:05:26,766392.0,0.0,0.0
12:05:26,766706.0,0.0,0.0
12:05:26,766784.0,0.0,0.0
12:05:26,766743.0,0.0,0.0
12:05:26,766755.0,0.0,0.0
12:05:26,766406.0,0.0,0.0
12:05:26,766669.0,0.0,0.0
12:05:26,766571.0,0.0,0.0
12:05:26,766505.0,0.0,0.0
12:05:26,766693.0,0.0,0.0
12:05:26,766377.0,0.0,0.0
12:05:26,766594.0,0.0,0.0
12:05:26,766453.0,0.0,0.0
12:05:26,766392.0,0.0,0.0
12:05:26,766574.0,0.0,0.0
12:05:26,766277.0,0.0,0.0
12:05:26,766508.0,0.0,0.0
12:05:26,766396.0,0.0,0.0
12:05:26,766366.0,0.0,0.0
12:05:26,766593.0,0.0,0.0
12:05:26,766299.0,0.0,0.0
12:05:26,766515.0,0.0,0.0
12:05:26,766398.0,0.0,0.0
12:05:26,766321.0,0.0,0.0
12:05:26,766496.0,0.0,0.0
12:05:26,766194.0,0.0,0.0
12:05:26,766434.0,0.0,0.0
12:05:26,766284.0,0.0,0.0
12:05:26,766203.0,0.0,0.0
12:05:26,766432.0,0.0,0.0
12:05:26,766149.0,0.0,0.0
12:05:26,766408.0,0.0,0.0
12:05:26,766298.0,0.0,0.0
12:05:26,766244.0,0.0,0.0
12:05:26,766441.0,0.0,0.0
12:05:26,766145.0,0.0,0.0
12:05:26,766400.0,0.0,0.0
12:05:26,766274.0,0.0,0.0
12:05:26,766184.0,0.0,0.0
12:05:26,766384.0,0.0,0.0
12:05:26,766085.0,0.0,0.0
12:05:26,766319.0,0.0,0.0
12:05:26,766206.0,0.0,0.0
12:05:27,766152.0,0.0,0.0
12:05:27,766335.0,0.0,0.0
12:05:27,766065.0,0.0,0.0
12:05:27,766272.0,0.0,0.0
12:05:27,766138.0,0.0,0.0
12:05:27,766104.0,0.0,0.0
12:05:27,766309.0,0.0,0.0
12:05:27,766021.0,0.0,0.0
12:05:27,766255.0,0.0,0.0
12:05:27,766109.0,0.0,0.0
12:05:27,766063.0,0.0,0.0
12:05:27,766277.0,0.0,0.0
12:05:27,765959.0,0.0,0.0
12:05:27,766170.0,0.0,0.0
12:05:27,766046.0,0.0,0.0
12:05:27,765996.0,0.0,0.0
12:05:27,766214.0,0.0,0.0
12:05:27,765918.0,0.0,0.0
12:05:27,766180.0,0.0,0.0
12:05:27,766068.0,0.0,0.0
12:05:27,766008.0,0.0,0.0
12:05:27,766222.0,0.0,0.0
12:05:27,765958.0,0.0,0.0
12:05:27,766197.0,0.0,0.0
12:05:27,766056.0,0.0,0.0
12:05:27,765988.0,0.0,0.0
12:05:27,766237.0,0.0,0.0
12:05:27,765968.0,0.0,0.0
12:05:27,766205.0,0.0,0.0
12:05:27,766087.0,0.0,0.0
12:05:27,766007.0,0.0,0.0
12:05:27,766224.0,0.0,0.0
12:05:27,765954.0,0.0,0.0
12:05:27,766186.0,0.0,0.0
12:05:27,766069.0,0.0,0.0
12:05:27,766025.0,0.0,0.0
12:05:27,766243.0,0.0,0.0
12:05:27,765935.0,0.0,0.0
12:05:27,766142.0,0.0,0.0
12:05:27,765997.0,0.0,0.0
12:05:27,765918.0,0.0,0.0
12:05:27,766148.0,0.0,0.0
12:05:27,765871.0,0.0,0.0
12:05:27,766111.0,0.0,0.0
12:05:27,765991.0,0.0,0.0
12:05:27,765927.0,0.0,0.0
12:05:27,766163.0,0.0,0.0
12:05:27,765867.0,0.0,0.0
12:05:27,766104.0,0.0,0.0
12:05:27,766006.0,0.0,0.0
12:05:27,765948.0,0.0,0.0
12:05:27,766156.0,0.0,0.0
12:05:27,765859.0,0.0,0.0
12:05:27,766111.0,0.0,0.0
12:05:27,765971.0,0.0,0.0
12:05:27,765895.0,0.0,0.0
12:05:27,766029.0,0.0,0.0
12:05:27,765717.0,0.0,0.0
12:05:27,765965.0,0.0,0.0
12:05:27,765913.0,0.0,0.0
12:05:27,766022.0,0.0,0.0
12:05:27,766328.0,0.0,0.0
12:05:27,765865.0,0.0,0.0
12:05:27,766032.0,0.0,0.0
12:05:27,765930.0,0.0,0.0
12:05:27,765856.0,0.0,0.0
12:05:27,766074.0,0.0,0.0
12:05:27,765801.0,0.0,0.0
12:05:27,766028.0,0.0,0.0
12:05:27,765873.0,0.0,0.0
12:05:27,765779.0,0.0,0.0
12:05:27,765984.0,0.0,0.0
12:05:27,765678.0,0.0,0.0
12:05:27,765911.0,0.0,0.0
12:05:27,765784.0,0.0,0.0
12:05:27,765764.0,0.0,0.0
12:05:27,765945.0,0.0,0.0
12:05:27,765654.0,0.0,0.0
12:05:27,765911.0,0.0,0.0
12:05:27,765773.0,0.0,0.0
12:05:27,765739.0,0.0,0.0
12:05:27,765910.0,0.0,0.0
12:05:27,765594.0,0.0,0.0
12:05:27,765855.0,0.0,0.0
12:05:27,765713.0,0.0,0.0
12:05:27,765636.0,0.0,0.0
12:05:27,765853.0,0.0,0.0
12:05:27,765558.0,0.0,0.0
12:05:27,765809.0,0.0,0.0
12:05:27,765688.0,0.0,0.0
12:05:27,765638.0,0.0,0.0
12:05:27,765820.0,0.0,0.0
12:05:27,765544.0,0.0,0.0
12:05:27,765812.0,0.0,0.0
12:05:27,765672.0,0.0,0.0
12:05:27,765616.0,0.0,0.0
12:05:27,765850.0,0.0,0.0
12:05:27,765549.0,0.0,0.0
12:05:27,765771.0,0.0,0.0
12:05:27,765649.0,0.0,0.0
12:05:27,765608.0,0.0,0.0
12:05:27,765823.0,0.0,0.0
12:05:27,765499.0,0.0,0.0
12:05:27,765729.0,0.0,0.0
12:05:27,765606.0,0.0,0.0
12:05:27,765535.0,0.0,0.0
12:05:27,765751.0,0.0,0.0
12:05:27,765456.0,0.0,0.0
12:05:27,765718.0,0.0,0.0
12:05:27,765597.0,0.0,0.0
12:05:27,765556.0,0.0,0.0
12:05:27,765755.0,0.0,0.0
12:05:27,765498.0,0.0,0.0
12:05:27,765752.0,0.0,0.0
12:05:27,765631.0,0.0,0.0
12:05:27,765544.0,0.0,0.0
12:05:27,765758.0,0.0,0.0
12:05:27,765479.0,0.0,0.0
12:05:27,765711.0,0.0,0.0
12:05:27,765601.0,0.0,0.0
12:05:27,765566.0,0.0,0.0
12:05:27,765749.0,0.0,0.0
12:05:27,765468.0,0.0,0.0
12:05:27,765764.0,0.0,0.0
12:05:27,765626.0,0.0,0.0
12:05:27,765616.0,0.0,0.0
12:05:28,765833.0,0.0,0.0
12:05:28,765520.0,0.0,0.0
12:05:28,765786.0,0.0,0.0
12:05:28,765686.0,0.0,0.0
12:05:28,765638.0,0.0,0.0
12:05:28,765819.0,0.0,0.0
12:05:28,765524.0,0.0,0.0
12:05:28,765788.0,0.0,0.0
12:05:28,765697.0,0.0,0.0
12:05:28,765654.0,0.0,0.0
12:05:28,765823.0,0.0,0.0
12:05:28,765546.0,0.0,0.0
12:05:28,765791.0,0.0,0.0
12:05:28,765624.0,0.0,0.0
12:05:28,765623.0,0.0,0.0
12:05:28,765823.0,0.0,0.0
12:05:28,765533.0,0.0,0.0
12:05:28,765786.0,0.0,0.0
12:05:28,765648.0,0.0,0.0
12:05:28,765623.0,0.0,0.0
12:05:28,765843.0,0.0,0.0
12:05:28,765556.0,0.0,0.0
12:05:28,765810.0,0.0,0.0
12:05:28,765670.0,0.0,0.0
12:05:28,765631.0,0.0,0.0
12:05:28,765869.0,0.0,0.0
12:05:28,765596.0,0.0,0.0
12:05:28,765858.0,0.0,0.0
12:05:28,765724.0,0.0,0.0
12:05:28,765593.0,0.0,0.0
12:05:28,765728.0,0.0,0.0
12:05:28,765500.0,0.0,0.0
12:05:28,765842.0,0.0,0.0
12:05:28,765816.0,0.0,0.0
12:05:28,765872.0,0.0,0.0
12:05:28,765925.0,0.0,0.0
12:05:28,765591.0,0.0,0.0
12:05:28,765791.0,0.0,0.0
12:05:28,765656.0,0.0,0.0
12:05:28,765625.0,0.0,0.0
12:05:28,765832.0,0.0,0.0
12:05:28,765560.0,0.0,0.0
12:05:28,765813.0,0.0,0.0
12:05:28,765661.0,0.0,0.0
12:05:28,765573.0,0.0,0.0
12:05:28,765755.0,0.0,0.0
12:05:28,765473.0,0.0,0.0
12:05:28,765724.0,0.0,0.0
12:05:28,765605.0,0.0,0.0
12:05:28,765566.0,0.0,0.0
12:05:28,765740.0,0.0,0.0
12:05:28,765461.0,0.0,0.0
12:05:28,765723.0,0.0,0.0
12:05:28,765574.0,0.0,0.0
12:05:28,765521.0,0.0,0.0
12:05:28,765718.0,0.0,0.0
12:05:28,765433.0,0.0,0.0
12:05:28,765659.0,0.0,0.0
12:05:28,765540.0,0.0,0.0
12:05:28,765473.0,0.0,0.0
12:05:28,765669.0,0.0,0.0
12:05:28,765406.0,0.0,0.0
12:05:28,765666.0,0.0,0.0
12:05:28,765512.0,0.0,0.0
12:05:28,765453.0,0.0,0.0
12:05:28,765674.0,0.0,0.0
12:05:28,765416.0,0.0,0.0
12:05:28,765688.0,0.0,0.0
12:05:28,765570.0,0.0,0.0
12:05:28,765525.0,0.0,0.0
12:05:28,765693.0,0.0,0.0
12:05:28,765403.0,0.0,0.0
12:05:28,765663.0,0.0,0.0
12:05:28,765523.0,0.0,0.0
12:05:28,765473.0,0.0,0.0
12:05:28,765665.0,0.0,0.0
12:05:28,765371.0,0.0,0.0
12:05:28,765623.0,0.0,0.0
12:05:28,765490.0,0.0,0.0
12:05:28,765476.0,0.0,0.0
12:05:28,765703.0,0.0,0.0
12:05:28,765387.0,0.0,0.0
12:05:28,765651.0,0.0,0.0
12:05:28,765541.0,0.0,0.0
12:05:28,765490.0,0.0,0.0
12:05:28,765691.0,0.0,0.0
12:05:28,765372.0,0.0,0.0
12:05:28,765633.0,0.0,0.0
12:05:28,765514.0,0.0,0.0
12:05:28,765453.0,0.0,0.0
12:05:28,765625.0,0.0,0.0
12:05:28,765384.0,0.0,0.0
12:05:28,765638.0,0.0,0.0
12:05:28,765503.0,0.0,0.0
12:05:28,765461.0,0.0,0.0
12:05:28,765658.0,0.0,0.0
12:05:28,765387.0,0.0,0.0
12:05:28,765664.0,0.0,0.0
12:05:28,765490.0,0.0,0.0
12:05:28,765464.0,0.0,0.0
12:05:28,765625.0,0.0,0.0
12:05:28,765341.0,0.0,0.0
12:05:28,765634.0,0.0,0.0
12:05:28,765508.0,0.0,0.0
12:05:28,765471.0,0.0,0.0
12:05:28,765668.0,0.0,0.0
12:05:28,765365.0,0.0,0.0
12:05:28,765618.0,0.0,0.0
12:05:28,765500.0,0.0,0.0
12:05:28,765434.0,0.0,0.0
12:05:28,765637.0,0.0,0.0
12:05:28,765362.0,0.0,0.0
12:05:28,765628.0,0.0,0.0
12:05:28,765541.0,0.0,0.0
12:05:28,765481.0,0.0,0.0
12:05:28,765682.0,0.0,0.0
12:05:28,765415.0,0.0,0.0
12:05:28,765657.0,0.0,0.0
12:05:28,765523.0,0.0,0.0
12:05:28,765468.0,0.0,0.0
12:05:28,765673.0,0.0,0.0
12:05:28,765428.0,0.0,0.0
12:05:28,765654.0,0.0,0.0
12:05:28,765547.0,0.0,0.0
12:05:28,765509.0,0.0,0.0
12:05:29,765668.0,0.0,0.0
12:05:29,765378.0,0.0,0.0
12:05:29,765573.0,0.0,0.0
12:05:29,765403.0,0.0,0.0
12:05:29,765371.0,0.0,0.0
12:05:29,765610.0,0.0,0.0
12:05:29,765474.0,0.0,0.0
12:05:29,765821.0,0.0,0.0
12:05:29,765527.0,0.0,0.0
12:05:29,765381.0,0.0,0.0
12:05:29,765542.0,0.0,0.0
12:05:29,765291.0,0.0,0.0
12:05:29,765526.0,0.0,0.0
12:05:29,765398.0,0.0,0.0
12:05:29,765362.0,0.0,0.0
12:05:29,765547.0,0.0,0.0
12:05:29,765253.0,0.0,0.0
12:05:29,765474.0,0.0,0.0
12:05:29,765318.0,0.0,0.0
12:05:29,765219.0,0.0,0.0
12:05:29,765384.0,0.0,0.0
12:05:29,765110.0,0.0,0.0
12:05:29,765378.0,0.0,0.0
12:05:29,765249.0,0.0,0.0
12:05:29,765228.0,0.0,0.0
12:05:29,765409.0,0.0,0.0
12:05:29,765089.0,0.0,0.0
12:05:29,765316.0,0.0,0.0
12:05:29,765160.0,0.0,0.0
12:05:29,765073.0,0.0,0.0
12:05:29,765239.0,0.0,0.0
12:05:29,764920.0,0.0,0.0
12:05:29,765166.0,0.0,0.0
12:05:29,765037.0,0.0,0.0
12:05:29,765021.0,0.0,0.0
12:05:29,765213.0,0.0,0.0
12:05:29,764931.0,0.0,0.0
12:05:29,765190.0,0.0,0.0
12:05:29,765077.0,0.0,0.0
12:05:29,765034.0,0.0,0.0
12:05:29,765227.0,0.0,0.0
12:05:29,764951.0,0.0,0.0
12:05:29,765214.0,0.0,0.0
12:05:29,765036.0,0.0,0.0
12:05:29,764974.0,0.0,0.0
12:05:29,765174.0,0.0,0.0
12:05:29,764882.0,0.0,0.0
12:05:29,765118.0,0.0,0.0
12:05:29,764973.0,0.0,0.0
12:05:29,764922.0,0.0,0.0
12:05:29,765114.0,0.0,0.0
12:05:29,764816.0,0.0,0.0
12:05:29,765063.0,0.0,0.0
12:05:29,764919.0,0.0,0.0
12:05:29,764901.0,0.0,0.0
12:05:29,765081.0,0.0,0.0
12:05:29,764794.0,0.0,0.0
12:05:29,765068.0,0.0,0.0
12:05:29,764901.0,0.0,0.0
12:05:29,764864.0,0.0,0.0
12:05:29,765046.0,0.0,0.0
12:05:29,764745.0,0.0,0.0
12:05:29,765004.0,0.0,0.0
12:05:29,764870.0,0.0,0.0
12:05:29,764805.0,0.0,0.0
12:05:29,764994.0,0.0,0.0
12:05:29,764702.0,0.0,0.0
12:05:29,764956.0,0.0,0.0
12:05:29,764828.0,0.0,0.0
12:05:29,764787.0,0.0,0.0
12:05:29,764978.0,0.0,0.0
12:05:29,764692.0,0.0,0.0
12:05:29,764949.0,0.0,0.0
12:05:29,764795.0,0.0,0.0
12:05:29,764771.0,0.0,0.0
12:05:29,764968.0,0.0,0.0
12:05:29,764676.0,0.0,0.0
12:05:29,764914.0,0.0,0.0
12:05:29,764785.0,0.0,0.0
12:05:29,764758.0,0.0,0.0
12:05:29,764923.0,0.0,0.0
12:05:29,764638.0,0.0,0.0
12:05:29,764848.0,0.0,0.0
12:05:29,764723.0,0.0,0.0
12:05:29,764708.0,0.0,0.0
12:05:29,764878.0,0.0,0.0
12:05:29,764612.0,0.0,0.0
12:05:29,764881.0,0.0,0.0
12:05:29,764733.0,0.0,0.0
12:05:29,764738.0,0.0,0.0
12:05:29,764894.0,0.0,0.0
12:05:29,764576.0,0.0,0.0
12:05:29,764853.0,0.0,0.0
12:05:29,764739.0,0.0,0.0
12:05:29,764709.0,0.0,0.0
12:05:29,764901.0,0.0,0.0
12:05:29,764632.0,0.0,0.0
12:05:29,764887.0,0.0,0.0
12:05:29,764754.0,0.0,0.0
12:05:29,764728.0,0.0,0.0
12:05:29,764896.0,0.0,0.0
12:05:29,764583.0,0.0,0.0
12:05:29,764786.0,0.0,0.0
12:05:29,764612.0,0.0,0.0
12:05:29,764601.0,0.0,0.0
12:05:29,764827.0,0.0,0.0
12:05:29,764631.0,0.0,0.0
12:05:29,765029.0,0.0,0.0
12:05:29,764761.0,0.0,0.0
12:05:29,764625.0,0.0,0.0
12:05:29,764804.0,0.0,0.0
12:05:29,764569.0,0.0,0.0
12:05:29,764798.0,0.0,0.0
12:05:29,764649.0,0.0,0.0
12:05:29,764593.0,0.0,0.0
12:05:29,764773.0,0.0,0.0
12:05:29,764476.0,0.0,0.0
12:05:29,764713.0,0.0,0.0
12:05:29,764557.0,0.0,0.0
12:05:29,764506.0,0.0,0.0
12:05:29,764684.0,0.0,0.0
12:05:29,764405.0,0.0,0.0
12:05:29,764678.0,0.0,0.0
12:05:29,764514.0,0.0,0.0
12:05:30,764486.0,0.0,0.0
12:05:30,764692.0,0.0,0.0
12:05:30,764398.0,0.0,0.0
12:05:30,764670.0,0.0,0.0
12:05:30,764509.0,0.0,0.0
12:05:30,764454.0,0.0,0.0
12:05:30,764636.0,0.0,0.0
12:05:30,764359.0,0.0,0.0
12:05:30,764618.0,0.0,0.0
12:05:30,764459.0,0.0,0.0
12:05:30,764446.0,0.0,0.0
12:05:30,764638.0,0.0,0.0
12:05:30,764349.0,0.0,0.0
12:05:30,764605.0,0.0,0.0
12:05:30,764469.0,0.0,0.0
12:05:30,764429.0,0.0,0.0
12:05:30,764636.0,0.0,0.0
12:05:30,764360.0,0.0,0.0
12:05:30,764612.0,0.0,0.0
12:05:30,764472.0,0.0,0.0
12:05:30,764436.0,0.0,0.0
12:05:30,764643.0,0.0,0.0
12:05:30,764361.0,0.0,0.0
12:05:30,764610.0,0.0,0.0
12:05:30,764474.0,0.0,0.0
12:05:30,764420.0,0.0,0.0
12:05:30,764571.0,0.0,0.0
12:05:30,764302.0,0.0,0.0
12:05:30,764572.0,0.0,0.0
12:05:30,764424.0,0.0,0.0
12:05:30,764406.0,0.0,0.0
12:05:30,764568.0,0.0,0.0
12:05:30,764309.0,0.0,0.0
12:05:30,764576.0,0.0,0.0
12:05:30,764426.0,0.0,0.0
12:05:30,764368.0,0.0,0.0
12:05:30,764540.0,0.0,0.0
12:05:30,764265.0,0.0,0.0
12:05:30,764537.0,0.0,0.0
12:05:30,764364.0,0.0,0.0
12:05:30,764327.0,0.0,0.0
12:05:30,764493.0,0.0,0.0
12:05:30,764215.0,0.0,0.0
12:05:30,764478.0,0.0,0.0
12:05:30,764315.0,0.0,0.0
12:05:30,764289.0,0.0,0.0
12:05:30,764463.0,0.0,0.0
12:05:30,764186.0,0.0,0.0
12:05:30,764443.0,0.0,0.0
12:05:30,764290.0,0.0,0.0
12:05:30,764290.0,0.0,0.0
12:05:30,764456.0,0.0,0.0
12:05:30,764216.0,0.0,0.0
12:05:30,764499.0,0.0,0.0
12:05:30,764308.0,0.0,0.0
12:05:30,764290.0,0.0,0.0
12:05:30,764464.0,0.0,0.0
12:05:30,764199.0,0.0,0.0
12:05:30,764499.0,0.0,0.0
12:05:30,764339.0,0.0,0.0
12:05:30,764314.0,0.0,0.0
12:05:30,764517.0,0.0,0.0
12:05:30,764210.0,0.0,0.0
12:05:30,764468.0,0.0,0.0
12:05:30,764363.0,0.0,0.0
12:05:30,764339.0,0.0,0.0
12:05:30,764507.0,0.0,0.0
12:05:30,764225.0,0.0,0.0
12:05:30,764519.0,0.0,0.0
12:05:30,764402.0,0.0,0.0
12:05:30,764399.0,0.0,0.0
12:05:30,764573.0,0.0,0.0
12:05:30,764268.0,0.0,0.0
12:05:30,764566.0,0.0,0.0
12:05:30,764393.0,0.0,0.0
12:05:30,764353.0,0.0,0.0
12:05:30,764566.0,0.0,0.0
12:05:30,764265.0,0.0,0.0
12:05:30,764503.0,0.0,0.0
12:05:30,764310.0,0.0,0.0
12:05:30,764271.0,0.0,0.0
12:05:30,764483.0,0.0,0.0
12:05:30,764232.0,0.0,0.0
12:05:30,764686.0,0.0,0.0
12:05:30,764529.0,0.0,0.0
12:05:30,764343.0,0.0,0.0
12:05:30,764490.0,0.0,0.0
12:05:30,764246.0,0.0,0.0
12:05:30,764511.0,0.0,0.0
12:05:30,764336.0,0.0,0.0
12:05:30,764332.0,0.0,0.0
12:05:30,764527.0,0.0,0.0
12:05:30,764240.0,0.0,0.0
12:05:30,764456.0,0.0,0.0
12:05:30,764266.0,0.0,0.0
12:05:30,764250.0,0.0,0.0
12:05:30,764389.0,0.0,0.0
12:05:30,764098.0,0.0,0.0
12:05:30,764388.0,0.0,0.0
12:05:30,764251.0,0.0,0.0
12:05:30,764244.0,0.0,0.0
12:05:30,764431.0,0.0,0.0
12:05:30,764148.0,0.0,0.0
12:05:30,764420.0,0.0,0.0
12:05:30,764235.0,0.0,0.0
12:05:30,764204.0,0.0,0.0
12:05:30,764383.0,0.0,0.0
12:05:30,764098.0,0.0,0.0
12:05:30,764375.0,0.0,0.0
12:05:30,764226.0,0.0,0.0
12:05:30,764176.0,0.0,0.0
12:05:30,764391.0,0.0,0.0
12:05:30,764109.0,0.0,0.0
12:05:30,764361.0,0.0,0.0
12:05:30,764193.0,0.0,0.0
12:05:30,764193.0,0.0,0.0
12:05:30,764420.0,0.0,0.0
12:05:30,764141.0,0.0,0.0
12:05:30,764386.0,0.0,0.0
12:05:30,764224.0,0.0,0.0
12:05:30,764218.0,0.0,0.0
12:05:30,764419.0,0.0,0.0
12:05:30,764180.0,0.0,0.0
12:05:30,764429.0,0.0,0.0
12:05:30,764266.0,0.0,0.0
12:05:31,764241.0,0.0,0.0
12:05:31,764411.0,0.0,0.0
12:05:31,764145.0,0.0,0.0
12:05:31,764391.0,0.0,0.0
12:05:31,764240.0,0.0,0.0
12:05:31,764244.0,0.0,0.0
12:05:31,764421.0,0.0,0.0
12:05:31,764143.0,0.0,0.0
12:05:31,764393.0,0.0,0.0
12:05:31,764225.0,0.0,0.0
12:05:31,764220.0,0.0,0.0
12:05:31,764401.0,0.0,0.0
12:05:31,764107.0,0.0,0.0
12:05:31,764384.0,0.0,0.0
12:05:31,764205.0,0.0,0.0
12:05:31,764207.0,0.0,0.0
12:05:31,764414.0,0.0,0.0
12:05:31,764106.0,0.0,0.0
12:05:31,764356.0,0.0,0.0
12:05:31,764181.0,0.0,0.0
12:05:31,764182.0,0.0,0.0
12:05:31,764367.0,0.0,0.0
12:05:31,764129.0,0.0,0.0
12:05:31,764378.0,0.0,0.0
12:05:31,764223.0,0.0,0.0
12:05:31,764228.0,0.0,0.0
12:05:31,764401.0,0.0,0.0
12:05:31,764130.0,0.0,0.0
12:05:31,764399.0,0.0,0.0
12:05:31,764256.0,0.0,0.0
12:05:31,764266.0,0.0,0.0
12:05:31,764422.0,0.0,0.0
12:05:31,764143.0,0.0,0.0
12:05:31,764401.0,0.0,0.0
12:05:31,764243.0,0.0,0.0
12:05:31,764234.0,0.0,0.0
12:05:31,764380.0,0.0,0.0
12:05:31,764116.0,0.0,0.0
12:05:31,764381.0,0.0,0.0
12:05:31,764232.0,0.0,0.0
12:05:31,764241.0,0.0,0.0
12:05:31,764433.0,0.0,0.0
12:05:31,764151.0,0.0,0.0
12:05:31,764420.0,0.0,0.0
12:05:31,764259.0,0.0,0.0
12:05:31,764250.0,0.0,0.0
12:05:31,764431.0,0.0,0.0
12:05:31,764171.0,0.0,0.0
12:05:31,764428.0,0.0,0.0
12:05:31,764251.0,0.0,0.0
12:05:31,764279.0,0.0,0.0
12:05:31,764436.0,0.0,0.0
12:05:31,764147.0,0.0,0.0
12:05:31,764404.0,0.0,0.0
12:05:31,764193.0,0.0,0.0
12:05:31,764133.0,0.0,0.0
12:05:31,764347.0,0.0,0.0
12:05:31,764104.0,0.0,0.0
12:05:31,764514.0,0.0,0.0
12:05:31,764485.0,0.0,0.0
12:05:31,764325.0,0.0,0.0
12:05:31,764404.0,0.0,0.0
12:05:31,764123.0,0.0,0.0
12:05:31,764396.0,0.0,0.0
12:05:31,764247.0,0.0,0.0
12:05:31,764221.0,0.0,0.0
12:05:31,764383.0,0.0,0.0
12:05:31,764078.0,0.0,0.0
12:05:31,764308.0,0.0,0.0
12:05:31,764129.0,0.0,0.0
12:05:31,764123.0,0.0,0.0
12:05:31,764264.0,0.0,0.0
12:05:31,764006.0,0.0,0.0
12:05:31,764254.0,0.0,0.0
12:05:31,764087.0,0.0,0.0
12:05:31,764095.0,0.0,0.0
12:05:31,764283.0,0.0,0.0
12:05:31,763993.0,0.0,0.0
12:05:31,764236.0,0.0,0.0
12:05:31,764044.0,0.0,0.0
12:05:31,764028.0,0.0,0.0
12:05:31,764169.0,0.0,0.0
12:05:31,763870.0,0.0,0.0
12:05:31,764115.0,0.0,0.0
12:05:31,763966.0,0.0,0.0
12:05:31,763966.0,0.0,0.0
12:05:31,764154.0,0.0,0.0
12:05:31,763869.0,0.0,0.0
12:05:31,764148.0,0.0,0.0
12:05:31,763977.0,0.0,0.0
12:05:31,763964.0,0.0,0.0
12:05:31,764138.0,0.0,0.0
12:05:31,763849.0,0.0,0.0
12:05:31,764144.0,0.0,0.0
12:05:31,763971.0,0.0,0.0
12:05:31,763932.0,0.0,0.0
12:05:31,764110.0,0.0,0.0
12:05:31,763806.0,0.0,0.0
12:05:31,764062.0,0.0,0.0
12:05:31,763907.0,0.0,0.0
12:05:31,763896.0,0.0,0.0
12:05:31,764033.0,0.0,0.0
12:05:31,763773.0,0.0,0.0
12:05:31,764057.0,0.0,0.0
12:05:31,763894.0,0.0,0.0
12:05:31,763904.0,0.0,0.0
12:05:31,764061.0,0.0,0.0
12:05:31,763787.0,0.0,0.0
12:05:31,764054.0,0.0,0.0
12:05:31,763885.0,0.0,0.0
12:05:31,763883.0,0.0,0.0
12:05:31,764017.0,0.0,0.0
12:05:31,763726.0,0.0,0.0
12:05:31,763978.0,0.0,0.0
12:05:31,763810.0,0.0,0.0
12:05:31,763788.0,0.0,0.0
12:05:31,763919.0,0.0,0.0
12:05:31,763626.0,0.0,0.0
12:05:31,763912.0,0.0,0.0
12:05:31,763766.0,0.0,0.0
12:05:31,763771.0,0.0,0.0
12:05:31,763928.0,0.0,0.0
12:05:31,763626.0,0.0,0.0
12:05:31,763915.0,0.0,0.0
12:05:31,763764.0,0.0,0.0
12:05:32,763761.0,0.0,0.0
12:05:32,763938.0,0.0,0.0
12:05:32,763648.0,0.0,0.0
12:05:32,763943.0,0.0,0.0
12:05:32,763741.0,0.0,0.0
12:05:32,763755.0,0.0,0.0
12:05:32,763921.0,0.0,0.0
12:05:32,763641.0,0.0,0.0
12:05:32,763913.0,0.0,0.0
12:05:32,763751.0,0.0,0.0
12:05:32,763728.0,0.0,0.0
12:05:32,763869.0,0.0,0.0
12:05:32,763573.0,0.0,0.0
12:05:32,763846.0,0.0,0.0
12:05:32,763669.0,0.0,0.0
12:05:32,763676.0,0.0,0.0
12:05:32,763865.0,0.0,0.0
12:05:32,763621.0,0.0,0.0
12:05:32,763855.0,0.0,0.0
12:05:32,763685.0,0.0,0.0
12:05:32,763681.0,0.0,0.0
12:05:32,763869.0,0.0,0.0
12:05:32,763581.0,0.0,0.0
12:05:32,763821.0,0.0,0.0
12:05:32,763668.0,0.0,0.0
12:05:32,763676.0,0.0,0.0
12:05:32,763846.0,0.0,0.0
12:05:32,763571.0,0.0,0.0
12:05:32,763836.0,0.0,0.0
12:05:32,763669.0,0.0,0.0
12:05:32,763638.0,0.0,0.0
12:05:32,763754.0,0.0,0.0
12:05:32,763487.0,0.0,0.0
12:05:32,763774.0,0.0,0.0
12:05:32,763668.0,0.0,0.0
12:05:32,763833.0,0.0,0.0
12:05:32,763925.0,0.0,0.0
12:05:32,763491.0,0.0,0.0
12:05:32,763724.0,0.0,0.0
12:05:32,763593.0,0.0,0.0
12:05:32,763564.0,0.0,0.0
12:05:32,763738.0,0.0,0.0
12:05:32,763457.0,0.0,0.0
12:05:32,763717.0,0.0,0.0
12:05:32,763533.0,0.0,0.0
12:05:32,763486.0,0.0,0.0
12:05:32,763663.0,0.0,0.0
12:05:32,763398.0,0.0,0.0
12:05:32,763634.0,0.0,0.0
12:05:32,763448.0,0.0,0.0
12:05:32,763448.0,0.0,0.0
12:05:32,763634.0,0.0,0.0
12:05:32,763357.0,0.0,0.0
12:05:32,763619.0,0.0,0.0
12:05:32,763467.0,0.0,0.0
12:05:32,763501.0,0.0,0.0
12:05:32,763650.0,0.0,0.0
12:05:32,763354.0,0.0,0.0
12:05:32,763601.0,0.0,0.0
12:05:32,763404.0,0.0,0.0
12:05:32,763399.0,0.0,0.0
12:05:32,763603.0,0.0,0.0
12:05:32,763319.0,0.0,0.0
12:05:32,763569.0,0.0,0.0
12:05:32,763405.0,0.0,0.0
12:05:32,763425.0,0.0,0.0
12:05:32,763601.0,0.0,0.0
12:05:32,763309.0,0.0,0.0
12:05:32,763588.0,0.0,0.0
12:05:32,763434.0,0.0,0.0
12:05:32,763412.0,0.0,0.0
12:05:32,763574.0,0.0,0.0
12:05:32,763293.0,0.0,0.0
12:05:32,763575.0,0.0,0.0
12:05:32,763416.0,0.0,0.0
12:05:32,763371.0,0.0,0.0
12:05:32,763523.0,0.0,0.0
12:05:32,763303.0,0.0,0.0
12:05:32,763552.0,0.0,0.0
12:05:32,763364.0,0.0,0.0
12:05:32,763347.0,0.0,0.0
12:05:32,763521.0,0.0,0.0
12:05:32,763264.0,0.0,0.0
12:05:32,763528.0,0.0,0.0
12:05:32,763337.0,0.0,0.0
12:05:32,763343.0,0.0,0.0
12:05:32,763491.0,0.0,0.0
12:05:32,763198.0,0.0,0.0
12:05:32,763466.0,0.0,0.0
12:05:32,763339.0,0.0,0.0
12:05:32,763305.0,0.0,0.0
12:05:32,763478.0,0.0,0.0
12:05:32,763219.0,0.0,0.0
12:05:32,763468.0,0.0,0.0
12:05:32,763296.0,0.0,0.0
12:05:32,763316.0,0.0,0.0
12:05:32,763466.0,0.0,0.0
12:05:32,763169.0,0.0,0.0
12:05:32,763443.0,0.0,0.0
12:05:32,763278.0,0.0,0.0
12:05:32,763326.0,0.0,0.0
12:05:32,763505.0,0.0,0.0
12:05:32,763236.0,0.0,0.0
12:05:32,763514.0,0.0,0.0
12:05:32,763374.0,0.0,0.0
12:05:32,763376.0,0.0,0.0
12:05:32,763548.0,0.0,0.0
12:05:32,763265.0,0.0,0.0
12:05:32,763524.0,0.0,0.0
12:05:32,763391.0,0.0,0.0
12:05:32,763378.0,0.0,0.0
12:05:32,763556.0,0.0,0.0
12:05:32,763278.0,0.0,0.0
12:05:32,763503.0,0.0,0.0
12:05:32,763339.0,0.0,0.0
12:05:32,763367.0,0.0,0.0
12:05:32,763533.0,0.0,0.0
12:05:32,763268.0,0.0,0.0
12:05:32,763545.0,0.0,0.0
12:05:32,763403.0,0.0,0.0
12:05:32,763406.0,0.0,0.0
12:05:32,763560.0,0.0,0.0
12:05:32,763306.0,0.0,0.0
12:05:32,763582.0,0.0,0.0
12:05:32,763383.0,0.0,0.0
12:05:33,763393.0,0.0,0.0
12:05:33,763538.0,0.0,0.0
12:05:33,763261.0,0.0,0.0
12:05:33,763526.0,0.0,0.0
12:05:33,763349.0,0.0,0.0
12:05:33,763389.0,0.0,0.0
12:05:33,763528.0,0.0,0.0
12:05:33,763216.0,0.0,0.0
12:05:33,763393.0,0.0,0.0
12:05:33,763251.0,0.0,0.0
12:05:33,763317.0,0.0,0.0
12:05:33,763602.0,0.0,0.0
12:05:33,763498.0,0.0,0.0
12:05:33,763641.0,0.0,0.0
12:05:33,763331.0,0.0,0.0
12:05:33,763336.0,0.0,0.0
12:05:33,763510.0,0.0,0.0
12:05:33,763263.0,0.0,0.0
12:05:33,763506.0,0.0,0.0
12:05:33,763319.0,0.0,0.0
12:05:33,763333.0,0.0,0.0
12:05:33,763467.0,0.0,0.0
12:05:33,763184.0,0.0,0.0
12:05:33,763423.0,0.0,0.0
12:05:33,763216.0,0.0,0.0
12:05:33,763239.0,0.0,0.0
12:05:33,763383.0,0.0,0.0
12:05:33,763139.0,0.0,0.0
12:05:33,763395.0,0.0,0.0
12:05:33,763225.0,0.0,0.0
12:05:33,763247.0,0.0,0.0
12:05:33,763372.0,0.0,0.0
12:05:33,763096.0,0.0,0.0
12:05:33,763333.0,0.0,0.0
12:05:33,763165.0,0.0,0.0
12:05:33,763175.0,0.0,0.0
12:05:33,763365.0,0.0,0.0
12:05:33,763079.0,0.0,0.0
12:05:33,763316.0,0.0,0.0
12:05:33,763143.0,0.0,0.0
12:05:33,763110.0,0.0,0.0
12:05:33,763270.0,0.0,0.0
12:05:33,763076.0,0.0,0.0
12:05:33,763350.0,0.0,0.0
12:05:33,763159.0,0.0,0.0
12:05:33,763171.0,0.0,0.0
12:05:33,763319.0,0.0,0.0
12:05:33,763066.0,0.0,0.0
12:05:33,763311.0,0.0,0.0
12:05:33,763143.0,0.0,0.0
12:05:33,763191.0,0.0,0.0
12:05:33,763338.0,0.0,0.0
12:05:33,763091.0,0.0,0.0
12:05:33,763359.0,0.0,0.0
12:05:33,763156.0,0.0,0.0
12:05:33,763158.0,0.0,0.0
12:05:33,763308.0,0.0,0.0
12:05:33,763075.0,0.0,0.0
12:05:33,763334.0,0.0,0.0
12:05:33,763146.0,0.0,0.0
12:05:33,763178.0,0.0,0.0
12:05:33,763324.0,0.0,0.0
12:05:33,763051.0,0.0,0.0
12:05:33,763331.0,0.0,0.0
12:05:33,763176.0,0.0,0.0
12:05:33,763156.0,0.0,0.0
12:05:33,763329.0,0.0,0.0
12:05:33,763043.0,0.0,0.0
12:05:33,763304.0,0.0,0.0
12:05:33,763121.0,0.0,0.0
12:05:33,763121.0,0.0,0.0
12:05:33,763255.0,0.0,0.0
12:05:33,763026.0,0.0,0.0
12:05:33,763317.0,0.0,0.0
12:05:33,763169.0,0.0,0.0
12:05:33,763169.0,0.0,0.0
12:05:33,763292.0,0.0,0.0
12:05:33,763004.0,0.0,0.0
12:05:33,763273.0,0.0,0.0
12:05:33,763080.0,0.0,0.0
12:05:33,763121.0,0.0,0.0
12:05:33,763301.0,0.0,0.0
12:05:33,763041.0,0.0,0.0
12:05:33,763289.0,0.0,0.0
12:05:33,763148.0,0.0,0.0
12:05:33,763159.0,0.0,0.0
12:05:33,763320.0,0.0,0.0
12:05:33,763083.0,0.0,0.0
12:05:33,763318.0,0.0,0.0
12:05:33,763133.0,0.0,0.0
12:05:33,763125.0,0.0,0.0
12:05:33,763263.0,0.0,0.0
12:05:33,763048.0,0.0,0.0
12:05:33,763348.0,0.0,0.0
12:05:33,763173.0,0.0,0.0
12:05:33,763183.0,0.0,0.0
12:05:33,763328.0,0.0,0.0
12:05:33,763063.0,0.0,0.0
12:05:33,763313.0,0.0,0.0
12:05:33,763121.0,0.0,0.0
12:05:33,763119.0,0.0,0.0
12:05:33,763269.0,0.0,0.0
12:05:33,762993.0,0.0,0.0
12:05:33,763283.0,0.0,0.0
12:05:33,763126.0,0.0,0.0
12:05:33,763105.0,0.0,0.0
12:05:33,763247.0,0.0,0.0
12:05:33,762972.0,0.0,0.0
12:05:33,763193.0,0.0,0.0
12:05:33,762973.0,0.0,0.0
12:05:33,762975.0,0.0,0.0
12:05:33,763197.0,0.0,0.0
12:05:33,763065.0,0.0,0.0
12:05:33,763439.0,0.0,0.0
12:05:33,763103.0,0.0,0.0
12:05:33,762997.0,0.0,0.0
12:05:33,763124.0,0.0,0.0
12:05:33,762867.0,0.0,0.0
12:05:33,763136.0,0.0,0.0
12:05:33,762989.0,0.0,0.0
12:05:33,762988.0,0.0,0.0
12:05:33,763149.0,0.0,0.0
12:05:33,762854.0,0.0,0.0
12:05:33,763076.0,0.0,0.0
12:05:33,762879.0,0.0,0.0
12:05:34,762892.0,0.0,0.0
12:05:34,763028.0,0.0,0.0
12:05:34,762741.0,0.0,0.0
12:05:34,762997.0,0.0,0.0
12:05:34,762844.0,0.0,0.0
12:05:34,762858.0,0.0,0.0
12:05:34,762995.0,0.0,0.0
12:05:34,762729.0,0.0,0.0
12:05:34,762959.0,0.0,0.0
12:05:34,762766.0,0.0,0.0
12:05:34,762726.0,0.0,0.0
12:05:34,762868.0,0.0,0.0
12:05:34,762624.0,0.0,0.0
12:05:34,762885.0,0.0,0.0
12:05:34,762679.0,0.0,0.0
12:05:34,762691.0,0.0,0.0
12:05:34,762841.0,0.0,0.0
12:05:34,762613.0,0.0,0.0
12:05:34,762887.0,0.0,0.0
12:05:34,762699.0,0.0,0.0
12:05:34,762728.0,0.0,0.0
12:05:34,762868.0,0.0,0.0
12:05:34,762636.0,0.0,0.0
12:05:34,762883.0,0.0,0.0
12:05:34,762714.0,0.0,0.0
12:05:34,762719.0,0.0,0.0
12:05:34,762881.0,0.0,0.0
12:05:34,762584.0,0.0,0.0
12:05:34,762849.0,0.0,0.0
12:05:34,762674.0,0.0,0.0
12:05:34,762678.0,0.0,0.0
12:05:34,762796.0,0.0,0.0
12:05:34,762528.0,0.0,0.0
12:05:34,762763.0,0.0,0.0
12:05:34,762583.0,0.0,0.0
12:05:34,762628.0,0.0,0.0
12:05:34,762765.0,0.0,0.0
12:05:34,762509.0,0.0,0.0
12:05:34,762796.0,0.0,0.0
12:05:34,762649.0,0.0,0.0
12:05:34,762674.0,0.0,0.0
12:05:34,762781.0,0.0,0.0
12:05:34,762492.0,0.0,0.0
12:05:34,762790.0,0.0,0.0
12:05:34,762574.0,0.0,0.0
12:05:34,762580.0,0.0,0.0
12:05:34,762745.0,0.0,0.0
12:05:34,762478.0,0.0,0.0
12:05:34,762751.0,0.0,0.0
12:05:34,762584.0,0.0,0.0
12:05:34,762588.0,0.0,0.0
12:05:34,762708.0,0.0,0.0
12:05:34,762468.0,0.0,0.0
12:05:34,762744.0,0.0,0.0
12:05:34,762557.0,0.0,0.0
12:05:34,762563.0,0.0,0.0
12:05:34,762706.0,0.0,0.0
12:05:34,762442.0,0.0,0.0
12:05:34,762723.0,0.0,0.0
12:05:34,762576.0,0.0,0.0
12:05:34,762573.0,0.0,0.0
12:05:34,762701.0,0.0,0.0
12:05:34,762431.0,0.0,0.0
12:05:34,762707.0,0.0,0.0
12:05:34,762509.0,0.0,0.0
12:05:34,762499.0,0.0,0.0
12:05:34,762660.0,0.0,0.0
12:05:34,762406.0,0.0,0.0
12:05:34,762647.0,0.0,0.0
12:05:34,762449.0,0.0,0.0
12:05:34,762472.0,0.0,0.0
12:05:34,762638.0,0.0,0.0
12:05:34,762405.0,0.0,0.0
12:05:34,762671.0,0.0,0.0
12:05:34,762488.0,0.0,0.0
12:05:34,762482.0,0.0,0.0
12:05:34,762613.0,0.0,0.0
12:05:34,762374.0,0.0,0.0
12:05:34,762646.0,0.0,0.0
12:05:34,762463.0,0.0,0.0
12:05:34,762464.0,0.0,0.0
12:05:34,762628.0,0.0,0.0
12:05:34,762368.0,0.0,0.0
12:05:34,762652.0,0.0,0.0
12:05:34,762486.0,0.0,0.0
12:05:34,762467.0,0.0,0.0
12:05:34,762561.0,0.0,0.0
12:05:34,762300.0,0.0,0.0
12:05:34,762574.0,0.0,0.0
12:05:34,762482.0,0.0,0.0
12:05:34,762662.0,0.0,0.0
12:05:34,762724.0,0.0,0.0
12:05:34,762300.0,0.0,0.0
12:05:34,762544.0,0.0,0.0
12:05:34,762373.0,0.0,0.0
12:05:34,762406.0,0.0,0.0
12:05:34,762574.0,0.0,0.0
12:05:34,762321.0,0.0,0.0
12:05:34,762544.0,0.0,0.0
12:05:34,762328.0,0.0,0.0
12:05:34,762351.0,0.0,0.0
12:05:34,762496.0,0.0,0.0
12:05:34,762223.0,0.0,0.0
12:05:34,762468.0,0.0,0.0
12:05:34,762266.0,0.0,0.0
12:05:34,762302.0,0.0,0.0
12:05:34,762431.0,0.0,0.0
12:05:34,762197.0,0.0,0.0
12:05:34,762474.0,0.0,0.0
12:05:34,762268.0,0.0,0.0
12:05:34,762285.0,0.0,0.0
12:05:34,762445.0,0.0,0.0
12:05:34,762158.0,0.0,0.0
12:05:34,762382.0,0.0,0.0
12:05:34,762204.0,0.0,0.0
12:05:34,762224.0,0.0,0.0
12:05:34,762348.0,0.0,0.0
12:05:34,762109.0,0.0,0.0
12:05:34,762375.0,0.0,0.0
12:05:34,762206.0,0.0,0.0
12:05:34,762224.0,0.0,0.0
12:05:34,762398.0,0.0,0.0
12:05:34,762135.0,0.0,0.0
12:05:34,762369.0,0.0,0.0
12:05:34,762193.0,0.0,0.0
12:05:35,762251.0,0.0,0.0
12:05:35,762378.0,0.0,0.0
12:05:35,762128.0,0.0,0.0
12:05:35,762368.0,0.0,0.0
12:05:35,762195.0,0.0,0.0
12:05:35,762244.0,0.0,0.0
12:05:35,762339.0,0.0,0.0
12:05:35,762078.0,0.0,0.0
12:05:35,762371.0,0.0,0.0
12:05:35,762188.0,0.0,0.0
12:05:35,762212.0,0.0,0.0
12:05:35,762384.0,0.0,0.0
12:05:35,762149.0,0.0,0.0
12:05:35,762383.0,0.0,0.0
12:05:35,762196.0,0.0,0.0
12:05:35,762241.0,0.0,0.0
12:05:35,762380.0,0.0,0.0
12:05:35,762104.0,0.0,0.0
12:05:35,762387.0,0.0,0.0
12:05:35,762162.0,0.0,0.0
12:05:35,762188.0,0.0,0.0
12:05:35,762313.0,0.0,0.0
12:05:35,762065.0,0.0,0.0
12:05:35,762336.0,0.0,0.0
12:05:35,762165.0,0.0,0.0
12:05:35,762226.0,0.0,0.0
12:05:35,762368.0,0.0,0.0
12:05:35,762104.0,0.0,0.0
12:05:35,762386.0,0.0,0.0
12:05:35,762203.0,0.0,0.0
12:05:35,762231.0,0.0,0.0
12:05:35,762375.0,0.0,0.0
12:05:35,762153.0,0.0,0.0
12:05:35,762398.0,0.0,0.0
12:05:35,762220.0,0.0,0.0
12:05:35,762215.0,0.0,0.0
12:05:35,762348.0,0.0,0.0
12:05:35,762094.0,0.0,0.0
12:05:35,762373.0,0.0,0.0
12:05:35,762212.0,0.0,0.0
12:05:35,762238.0,0.0,0.0
12:05:35,762371.0,0.0,0.0
12:05:35,762090.0,0.0,0.0
12:05:35,762357.0,0.0,0.0
12:05:35,762156.0,0.0,0.0
12:05:35,762176.0,0.0,0.0
12:05:35,762337.0,0.0,0.0
12:05:35,762098.0,0.0,0.0
12:05:35,762342.0,0.0,0.0
12:05:35,762153.0,0.0,0.0
12:05:35,762163.0,0.0,0.0
12:05:35,762254.0,0.0,0.0
12:05:35,761998.0,0.0,0.0
12:05:35,762239.0,0.0,0.0
12:05:35,762041.0,0.0,0.0
12:05:35,762081.0,0.0,0.0
12:05:35,762199.0,0.0,0.0
12:05:35,761952.0,0.0,0.0
12:05:35,762223.0,0.0,0.0
12:05:35,762027.0,0.0,0.0
12:05:35,762048.0,0.0,0.0
12:05:35,762113.0,0.0,0.0
12:05:35,761814.0,0.0,0.0
12:05:35,762088.0,0.0,0.0
12:05:35,761926.0,0.0,0.0
12:05:35,762049.0,0.0,0.0
12:05:35,762274.0,0.0,0.0
12:05:35,761834.0,0.0,0.0
12:05:35,761980.0,0.0,0.0
12:05:35,761761.0,0.0,0.0
