TimeStramp,ECG,SpO2,Respiration
12:06:50,736538.0,0.0,0.0
12:06:50,736424.0,0.0,0.0
12:06:50,736502.0,0.0,0.0
12:06:50,736412.0,0.0,0.0
12:06:50,736366.0,0.0,0.0
12:06:50,736367.0,0.0,0.0
12:06:50,736304.0,0.0,0.0
12:06:50,736353.0,0.0,0.0
12:06:50,736273.0,0.0,0.0
12:06:50,736269.0,0.0,0.0
12:06:50,736299.0,0.0,0.0
12:06:50,736192.0,0.0,0.0
12:06:50,736274.0,0.0,0.0
12:06:50,736209.0,0.0,0.0
12:06:50,736242.0,0.0,0.0
12:06:50,736272.0,0.0,0.0
12:06:50,736207.0,0.0,0.0
12:06:50,736251.0,0.0,0.0
12:06:50,736188.0,0.0,0.0
12:06:50,736234.0,0.0,0.0
12:06:50,736279.0,0.0,0.0
12:06:50,736188.0,0.0,0.0
12:06:50,736280.0,0.0,0.0
12:06:50,736245.0,0.0,0.0
12:06:50,736232.0,0.0,0.0
12:06:50,736302.0,0.0,0.0
12:06:50,736258.0,0.0,0.0
12:06:50,736313.0,0.0,0.0
12:06:50,736253.0,0.0,0.0
12:06:50,736244.0,0.0,0.0
12:06:50,736260.0,0.0,0.0
12:06:50,736203.0,0.0,0.0
12:06:50,736259.0,0.0,0.0
12:06:50,736158.0,0.0,0.0
12:06:50,736141.0,0.0,0.0
12:06:50,736150.0,0.0,0.0
12:06:50,736094.0,0.0,0.0
12:06:50,736178.0,0.0,0.0
12:06:50,736113.0,0.0,0.0
12:06:50,736091.0,0.0,0.0
12:06:50,736133.0,0.0,0.0
12:06:50,736069.0,0.0,0.0
12:06:50,736114.0,0.0,0.0
12:06:50,736066.0,0.0,0.0
12:06:50,736087.0,0.0,0.0
12:06:50,736108.0,0.0,0.0
12:06:50,736059.0,0.0,0.0
12:06:50,736132.0,0.0,0.0
12:06:50,736078.0,0.0,0.0
12:06:50,736118.0,0.0,0.0
12:06:50,736126.0,0.0,0.0
12:06:50,736006.0,0.0,0.0
12:06:50,736063.0,0.0,0.0
12:06:50,736117.0,0.0,0.0
12:06:50,736294.0,0.0,0.0
12:06:50,736476.0,0.0,0.0
12:06:50,736285.0,0.0,0.0
12:06:50,736284.0,0.0,0.0
12:06:50,736224.0,0.0,0.0
12:06:50,736256.0,0.0,0.0
12:06:50,736287.0,0.0,0.0
12:06:50,736231.0,0.0,0.0
12:06:50,736310.0,0.0,0.0
12:06:50,736242.0,0.0,0.0
12:06:50,736261.0,0.0,0.0
12:06:50,736275.0,0.0,0.0
12:06:50,736206.0,0.0,0.0
12:06:50,736246.0,0.0,0.0
12:06:50,736133.0,0.0,0.0
12:06:50,736140.0,0.0,0.0
12:06:50,736170.0,0.0,0.0
12:06:50,736064.0,0.0,0.0
12:06:50,736140.0,0.0,0.0
12:06:50,736083.0,0.0,0.0
12:06:50,736066.0,0.0,0.0
12:06:50,736076.0,0.0,0.0
12:06:50,735993.0,0.0,0.0
12:06:50,736046.0,0.0,0.0
12:06:50,735992.0,0.0,0.0
12:06:50,736011.0,0.0,0.0
12:06:50,736058.0,0.0,0.0
12:06:50,736028.0,0.0,0.0
12:06:50,736136.0,0.0,0.0
12:06:50,736129.0,0.0,0.0
12:06:50,736169.0,0.0,0.0
12:06:50,736247.0,0.0,0.0
12:06:50,736194.0,0.0,0.0
12:06:50,736319.0,0.0,0.0
12:06:50,736298.0,0.0,0.0
12:06:50,736355.0,0.0,0.0
12:06:50,736421.0,0.0,0.0
12:06:50,736364.0,0.0,0.0
12:06:50,736477.0,0.0,0.0
12:06:50,736433.0,0.0,0.0
12:06:50,736456.0,0.0,0.0
12:06:50,736497.0,0.0,0.0
12:06:50,736426.0,0.0,0.0
12:06:50,736486.0,0.0,0.0
12:06:50,736460.0,0.0,0.0
12:06:50,736482.0,0.0,0.0
12:06:50,736521.0,0.0,0.0
12:06:50,736469.0,0.0,0.0
12:06:50,736523.0,0.0,0.0
12:06:50,736450.0,0.0,0.0
12:06:50,736483.0,0.0,0.0
12:06:50,736523.0,0.0,0.0
12:06:50,736439.0,0.0,0.0
12:06:50,736500.0,0.0,0.0
12:06:50,736441.0,0.0,0.0
12:06:50,736464.0,0.0,0.0
12:06:50,736464.0,0.0,0.0
12:06:50,736378.0,0.0,0.0
12:06:50,736433.0,0.0,0.0
12:06:50,736377.0,0.0,0.0
12:06:50,736368.0,0.0,0.0
12:06:50,736392.0,0.0,0.0
12:06:50,736324.0,0.0,0.0
12:06:50,736404.0,0.0,0.0
12:06:50,736356.0,0.0,0.0
12:06:50,736376.0,0.0,0.0
12:06:50,736399.0,0.0,0.0
12:06:50,736333.0,0.0,0.0
12:06:50,736423.0,0.0,0.0
12:06:50,736354.0,0.0,0.0
12:06:50,736374.0,0.0,0.0
12:06:51,736439.0,0.0,0.0
12:06:51,736374.0,0.0,0.0
12:06:51,736453.0,0.0,0.0
12:06:51,736373.0,0.0,0.0
12:06:51,736363.0,0.0,0.0
12:06:51,736371.0,0.0,0.0
12:06:51,736303.0,0.0,0.0
12:06:51,736383.0,0.0,0.0
12:06:51,736329.0,0.0,0.0
12:06:51,736354.0,0.0,0.0
12:06:51,736384.0,0.0,0.0
12:06:51,736306.0,0.0,0.0
12:06:51,736382.0,0.0,0.0
12:06:51,736250.0,0.0,0.0
12:06:51,736219.0,0.0,0.0
12:06:51,736208.0,0.0,0.0
12:06:51,736168.0,0.0,0.0
12:06:51,736347.0,0.0,0.0
12:06:51,736465.0,0.0,0.0
12:06:51,736468.0,0.0,0.0
12:06:51,736327.0,0.0,0.0
12:06:51,736207.0,0.0,0.0
12:06:51,736309.0,0.0,0.0
12:06:51,736208.0,0.0,0.0
12:06:51,736241.0,0.0,0.0
12:06:51,736274.0,0.0,0.0
12:06:51,736172.0,0.0,0.0
12:06:51,736244.0,0.0,0.0
12:06:51,736157.0,0.0,0.0
12:06:51,736190.0,0.0,0.0
12:06:51,736174.0,0.0,0.0
12:06:51,736074.0,0.0,0.0
12:06:51,736156.0,0.0,0.0
12:06:51,736060.0,0.0,0.0
12:06:51,736081.0,0.0,0.0
12:06:51,736104.0,0.0,0.0
12:06:51,736038.0,0.0,0.0
12:06:51,736065.0,0.0,0.0
12:06:51,735981.0,0.0,0.0
12:06:51,736005.0,0.0,0.0
12:06:51,736028.0,0.0,0.0
12:06:51,735942.0,0.0,0.0
12:06:51,736049.0,0.0,0.0
12:06:51,735985.0,0.0,0.0
12:06:51,735980.0,0.0,0.0
12:06:51,736005.0,0.0,0.0
12:06:51,735940.0,0.0,0.0
12:06:51,736009.0,0.0,0.0
12:06:51,735979.0,0.0,0.0
12:06:51,736011.0,0.0,0.0
12:06:51,736039.0,0.0,0.0
12:06:51,736006.0,0.0,0.0
12:06:51,736104.0,0.0,0.0
12:06:51,736040.0,0.0,0.0
12:06:51,736073.0,0.0,0.0
12:06:51,736113.0,0.0,0.0
12:06:51,736036.0,0.0,0.0
12:06:51,736101.0,0.0,0.0
12:06:51,736047.0,0.0,0.0
12:06:51,736026.0,0.0,0.0
12:06:51,736021.0,0.0,0.0
12:06:51,735936.0,0.0,0.0
12:06:51,736002.0,0.0,0.0
12:06:51,735943.0,0.0,0.0
12:06:51,735926.0,0.0,0.0
12:06:51,735906.0,0.0,0.0
12:06:51,735816.0,0.0,0.0
12:06:51,735859.0,0.0,0.0
12:06:51,735765.0,0.0,0.0
12:06:51,735781.0,0.0,0.0
12:06:51,735791.0,0.0,0.0
12:06:51,735731.0,0.0,0.0
12:06:51,735846.0,0.0,0.0
12:06:51,735805.0,0.0,0.0
12:06:51,735845.0,0.0,0.0
12:06:51,735868.0,0.0,0.0
12:06:51,735841.0,0.0,0.0
12:06:51,735930.0,0.0,0.0
12:06:51,735879.0,0.0,0.0
12:06:51,735940.0,0.0,0.0
12:06:51,735974.0,0.0,0.0
12:06:51,735909.0,0.0,0.0
12:06:51,735988.0,0.0,0.0
12:06:51,735911.0,0.0,0.0
12:06:51,735928.0,0.0,0.0
12:06:51,735938.0,0.0,0.0
12:06:51,735879.0,0.0,0.0
12:06:51,735979.0,0.0,0.0
12:06:51,735945.0,0.0,0.0
12:06:51,735940.0,0.0,0.0
12:06:51,735944.0,0.0,0.0
12:06:51,735881.0,0.0,0.0
12:06:51,735949.0,0.0,0.0
12:06:51,735883.0,0.0,0.0
12:06:51,735904.0,0.0,0.0
12:06:51,735903.0,0.0,0.0
12:06:51,735843.0,0.0,0.0
12:06:51,735918.0,0.0,0.0
12:06:51,735883.0,0.0,0.0
12:06:51,735924.0,0.0,0.0
12:06:51,735943.0,0.0,0.0
12:06:51,735798.0,0.0,0.0
12:06:51,735838.0,0.0,0.0
12:06:51,735804.0,0.0,0.0
12:06:51,735922.0,0.0,0.0
12:06:51,736120.0,0.0,0.0
12:06:51,736016.0,0.0,0.0
12:06:51,735923.0,0.0,0.0
12:06:51,735819.0,0.0,0.0
12:06:51,735808.0,0.0,0.0
12:06:51,735796.0,0.0,0.0
12:06:51,735689.0,0.0,0.0
12:06:51,735758.0,0.0,0.0
12:06:51,735651.0,0.0,0.0
12:06:51,735632.0,0.0,0.0
12:06:51,735629.0,0.0,0.0
12:06:51,735535.0,0.0,0.0
12:06:51,735558.0,0.0,0.0
12:06:51,735438.0,0.0,0.0
12:06:51,735527.0,0.0,0.0
12:06:51,735547.0,0.0,0.0
12:06:51,735513.0,0.0,0.0
12:06:51,735604.0,0.0,0.0
12:06:51,735545.0,0.0,0.0
12:06:51,735593.0,0.0,0.0
12:06:52,735622.0,0.0,0.0
12:06:52,735576.0,0.0,0.0
12:06:52,735673.0,0.0,0.0
12:06:52,735617.0,0.0,0.0
12:06:52,735682.0,0.0,0.0
12:06:52,735789.0,0.0,0.0
12:06:52,735787.0,0.0,0.0
12:06:52,735933.0,0.0,0.0
12:06:52,735875.0,0.0,0.0
12:06:52,735935.0,0.0,0.0
12:06:52,735999.0,0.0,0.0
12:06:52,735974.0,0.0,0.0
12:06:52,736082.0,0.0,0.0
12:06:52,736042.0,0.0,0.0
12:06:52,736046.0,0.0,0.0
12:06:52,736038.0,0.0,0.0
12:06:52,735983.0,0.0,0.0
12:06:52,736111.0,0.0,0.0
12:06:52,736065.0,0.0,0.0
12:06:52,736100.0,0.0,0.0
12:06:52,736150.0,0.0,0.0
12:06:52,736108.0,0.0,0.0
12:06:52,736204.0,0.0,0.0
12:06:52,736183.0,0.0,0.0
12:06:52,736258.0,0.0,0.0
12:06:52,736334.0,0.0,0.0
12:06:52,736297.0,0.0,0.0
12:06:52,736427.0,0.0,0.0
12:06:52,736491.0,0.0,0.0
12:06:52,736647.0,0.0,0.0
12:06:52,736773.0,0.0,0.0
12:06:52,736869.0,0.0,0.0
12:06:52,737041.0,0.0,0.0
12:06:52,737035.0,0.0,0.0
12:06:52,737124.0,0.0,0.0
12:06:52,737214.0,0.0,0.0
12:06:52,737211.0,0.0,0.0
12:06:52,737393.0,0.0,0.0
12:06:52,737399.0,0.0,0.0
12:06:52,737517.0,0.0,0.0
12:06:52,737649.0,0.0,0.0
12:06:52,737731.0,0.0,0.0
12:06:52,737939.0,0.0,0.0
12:06:52,738022.0,0.0,0.0
12:06:52,738198.0,0.0,0.0
12:06:52,738372.0,0.0,0.0
12:06:52,738457.0,0.0,0.0
12:06:52,738642.0,0.0,0.0
12:06:52,738685.0,0.0,0.0
12:06:52,738816.0,0.0,0.0
12:06:52,738926.0,0.0,0.0
12:06:52,738963.0,0.0,0.0
12:06:52,739067.0,0.0,0.0
12:06:52,739011.0,0.0,0.0
12:06:52,739039.0,0.0,0.0
12:06:52,739036.0,0.0,0.0
12:06:52,738848.0,0.0,0.0
12:06:52,738786.0,0.0,0.0
12:06:52,738717.0,0.0,0.0
12:06:52,738794.0,0.0,0.0
12:06:52,738909.0,0.0,0.0
12:06:52,738856.0,0.0,0.0
12:06:52,738749.0,0.0,0.0
12:06:52,738604.0,0.0,0.0
12:06:52,738625.0,0.0,0.0
12:06:52,738624.0,0.0,0.0
12:06:52,738588.0,0.0,0.0
12:06:52,738658.0,0.0,0.0
12:06:52,738581.0,0.0,0.0
12:06:52,738598.0,0.0,0.0
12:06:52,738588.0,0.0,0.0
12:06:52,738488.0,0.0,0.0
12:06:52,738509.0,0.0,0.0
12:06:52,738374.0,0.0,0.0
12:06:52,738304.0,0.0,0.0
12:06:52,738236.0,0.0,0.0
12:06:52,738163.0,0.0,0.0
12:06:52,738277.0,0.0,0.0
12:06:52,738193.0,0.0,0.0
12:06:52,738209.0,0.0,0.0
12:06:52,738188.0,0.0,0.0
12:06:52,738124.0,0.0,0.0
12:06:52,738201.0,0.0,0.0
12:06:52,738098.0,0.0,0.0
12:06:52,738166.0,0.0,0.0
12:06:52,738194.0,0.0,0.0
12:06:52,738123.0,0.0,0.0
12:06:52,738222.0,0.0,0.0
12:06:52,738179.0,0.0,0.0
12:06:52,738214.0,0.0,0.0
12:06:52,738226.0,0.0,0.0
12:06:52,738209.0,0.0,0.0
12:06:52,738312.0,0.0,0.0
12:06:52,738245.0,0.0,0.0
12:06:52,738303.0,0.0,0.0
12:06:52,738348.0,0.0,0.0
12:06:52,738281.0,0.0,0.0
12:06:52,738374.0,0.0,0.0
12:06:52,738351.0,0.0,0.0
12:06:52,738385.0,0.0,0.0
12:06:52,738419.0,0.0,0.0
12:06:52,738347.0,0.0,0.0
12:06:52,738458.0,0.0,0.0
12:06:52,738436.0,0.0,0.0
12:06:52,738503.0,0.0,0.0
12:06:52,738501.0,0.0,0.0
12:06:52,738465.0,0.0,0.0
12:06:52,738563.0,0.0,0.0
12:06:52,738479.0,0.0,0.0
12:06:52,738549.0,0.0,0.0
12:06:52,738565.0,0.0,0.0
12:06:52,738526.0,0.0,0.0
12:06:52,738602.0,0.0,0.0
12:06:52,738553.0,0.0,0.0
12:06:52,738583.0,0.0,0.0
12:06:52,738594.0,0.0,0.0
12:06:52,738612.0,0.0,0.0
12:06:52,738739.0,0.0,0.0
12:06:52,738712.0,0.0,0.0
12:06:52,738820.0,0.0,0.0
12:06:52,738879.0,0.0,0.0
12:06:52,738892.0,0.0,0.0
12:06:52,738973.0,0.0,0.0
12:06:52,738929.0,0.0,0.0
12:06:52,739003.0,0.0,0.0
12:06:53,739009.0,0.0,0.0
12:06:53,738970.0,0.0,0.0
12:06:53,739054.0,0.0,0.0
12:06:53,739008.0,0.0,0.0
12:06:53,739069.0,0.0,0.0
12:06:53,739034.0,0.0,0.0
12:06:53,738883.0,0.0,0.0
12:06:53,738982.0,0.0,0.0
12:06:53,739008.0,0.0,0.0
12:06:53,739218.0,0.0,0.0
12:06:53,739404.0,0.0,0.0
12:06:53,739296.0,0.0,0.0
12:06:53,739323.0,0.0,0.0
12:06:53,739305.0,0.0,0.0
12:06:53,739395.0,0.0,0.0
12:06:53,739439.0,0.0,0.0
12:06:53,739452.0,0.0,0.0
12:06:53,739524.0,0.0,0.0
12:06:53,739474.0,0.0,0.0
12:06:53,739498.0,0.0,0.0
12:06:53,739492.0,0.0,0.0
12:06:53,739413.0,0.0,0.0
12:06:53,739445.0,0.0,0.0
12:06:53,739354.0,0.0,0.0
12:06:53,739352.0,0.0,0.0
12:06:53,739354.0,0.0,0.0
12:06:53,739284.0,0.0,0.0
12:06:53,739318.0,0.0,0.0
12:06:53,739170.0,0.0,0.0
12:06:53,739109.0,0.0,0.0
12:06:53,739060.0,0.0,0.0
12:06:53,738926.0,0.0,0.0
12:06:53,738918.0,0.0,0.0
12:06:53,738779.0,0.0,0.0
12:06:53,738749.0,0.0,0.0
12:06:53,738719.0,0.0,0.0
12:06:53,738589.0,0.0,0.0
12:06:53,738592.0,0.0,0.0
12:06:53,738492.0,0.0,0.0
12:06:53,738518.0,0.0,0.0
12:06:53,738521.0,0.0,0.0
12:06:53,738458.0,0.0,0.0
12:06:53,738548.0,0.0,0.0
12:06:53,738451.0,0.0,0.0
12:06:53,738436.0,0.0,0.0
12:06:53,738431.0,0.0,0.0
12:06:53,738384.0,0.0,0.0
12:06:53,738457.0,0.0,0.0
12:06:53,738328.0,0.0,0.0
12:06:53,738401.0,0.0,0.0
12:06:53,738419.0,0.0,0.0
12:06:53,738315.0,0.0,0.0
12:06:53,738378.0,0.0,0.0
12:06:53,738253.0,0.0,0.0
12:06:53,738273.0,0.0,0.0
12:06:53,738274.0,0.0,0.0
12:06:53,738194.0,0.0,0.0
12:06:53,738256.0,0.0,0.0
12:06:53,738181.0,0.0,0.0
12:06:53,738215.0,0.0,0.0
12:06:53,738264.0,0.0,0.0
12:06:53,738235.0,0.0,0.0
12:06:53,738362.0,0.0,0.0
12:06:53,738388.0,0.0,0.0
12:06:53,738538.0,0.0,0.0
12:06:53,738627.0,0.0,0.0
12:06:53,738666.0,0.0,0.0
12:06:53,738810.0,0.0,0.0
12:06:53,738812.0,0.0,0.0
12:06:53,738923.0,0.0,0.0
12:06:53,739007.0,0.0,0.0
12:06:53,738996.0,0.0,0.0
12:06:53,739098.0,0.0,0.0
12:06:53,739081.0,0.0,0.0
12:06:53,739154.0,0.0,0.0
12:06:53,739181.0,0.0,0.0
12:06:53,739107.0,0.0,0.0
12:06:53,739132.0,0.0,0.0
12:06:53,738993.0,0.0,0.0
12:06:53,739100.0,0.0,0.0
12:06:53,739173.0,0.0,0.0
12:06:53,739183.0,0.0,0.0
12:06:53,739328.0,0.0,0.0
12:06:53,739141.0,0.0,0.0
12:06:53,739109.0,0.0,0.0
12:06:53,739099.0,0.0,0.0
12:06:53,739013.0,0.0,0.0
12:06:53,739096.0,0.0,0.0
12:06:53,738979.0,0.0,0.0
12:06:53,738961.0,0.0,0.0
12:06:53,738916.0,0.0,0.0
12:06:53,738803.0,0.0,0.0
12:06:53,738823.0,0.0,0.0
12:06:53,738666.0,0.0,0.0
12:06:53,738623.0,0.0,0.0
12:06:53,738589.0,0.0,0.0
12:06:53,738506.0,0.0,0.0
12:06:53,738541.0,0.0,0.0
12:06:53,738431.0,0.0,0.0
12:06:53,738439.0,0.0,0.0
12:06:53,738393.0,0.0,0.0
12:06:53,738291.0,0.0,0.0
12:06:53,738363.0,0.0,0.0
12:06:53,738268.0,0.0,0.0
12:06:53,738279.0,0.0,0.0
12:06:53,738273.0,0.0,0.0
12:06:53,738206.0,0.0,0.0
12:06:53,738271.0,0.0,0.0
12:06:53,738207.0,0.0,0.0
12:06:53,738253.0,0.0,0.0
12:06:53,738219.0,0.0,0.0
12:06:53,738158.0,0.0,0.0
12:06:53,738273.0,0.0,0.0
12:06:53,738243.0,0.0,0.0
12:06:53,738311.0,0.0,0.0
12:06:53,738352.0,0.0,0.0
12:06:53,738309.0,0.0,0.0
12:06:53,738409.0,0.0,0.0
12:06:53,738335.0,0.0,0.0
12:06:53,738380.0,0.0,0.0
12:06:53,738383.0,0.0,0.0
12:06:53,738323.0,0.0,0.0
12:06:53,738362.0,0.0,0.0
12:06:53,738270.0,0.0,0.0
12:06:53,738285.0,0.0,0.0
12:06:54,738312.0,0.0,0.0
12:06:54,738284.0,0.0,0.0
12:06:54,738364.0,0.0,0.0
12:06:54,738286.0,0.0,0.0
12:06:54,738323.0,0.0,0.0
12:06:54,738323.0,0.0,0.0
12:06:54,738303.0,0.0,0.0
12:06:54,738390.0,0.0,0.0
12:06:54,738336.0,0.0,0.0
12:06:54,738439.0,0.0,0.0
12:06:54,738453.0,0.0,0.0
12:06:54,738432.0,0.0,0.0
12:06:54,738530.0,0.0,0.0
12:06:54,738463.0,0.0,0.0
12:06:54,738481.0,0.0,0.0
12:06:54,738499.0,0.0,0.0
12:06:54,738486.0,0.0,0.0
12:06:54,738561.0,0.0,0.0
12:06:54,738506.0,0.0,0.0
12:06:54,738531.0,0.0,0.0
12:06:54,738528.0,0.0,0.0
12:06:54,738525.0,0.0,0.0
12:06:54,738633.0,0.0,0.0
12:06:54,738575.0,0.0,0.0
12:06:54,738591.0,0.0,0.0
12:06:54,738634.0,0.0,0.0
12:06:54,738689.0,0.0,0.0
12:06:54,738903.0,0.0,0.0
12:06:54,738823.0,0.0,0.0
12:06:54,738821.0,0.0,0.0
12:06:54,738836.0,0.0,0.0
12:06:54,738796.0,0.0,0.0
12:06:54,738909.0,0.0,0.0
12:06:54,738822.0,0.0,0.0
12:06:54,738834.0,0.0,0.0
12:06:54,738832.0,0.0,0.0
12:06:54,738755.0,0.0,0.0
12:06:54,738783.0,0.0,0.0
12:06:54,738648.0,0.0,0.0
12:06:54,738623.0,0.0,0.0
12:06:54,738611.0,0.0,0.0
12:06:54,738534.0,0.0,0.0
12:06:54,738568.0,0.0,0.0
12:06:54,738448.0,0.0,0.0
12:06:54,738464.0,0.0,0.0
12:06:54,738439.0,0.0,0.0
12:06:54,738416.0,0.0,0.0
12:06:54,738459.0,0.0,0.0
12:06:54,738344.0,0.0,0.0
12:06:54,738349.0,0.0,0.0
12:06:54,738293.0,0.0,0.0
12:06:54,738204.0,0.0,0.0
12:06:54,738189.0,0.0,0.0
12:06:54,738024.0,0.0,0.0
12:06:54,737956.0,0.0,0.0
12:06:54,737854.0,0.0,0.0
12:06:54,737706.0,0.0,0.0
12:06:54,737698.0,0.0,0.0
12:06:54,737534.0,0.0,0.0
12:06:54,737562.0,0.0,0.0
12:06:54,737544.0,0.0,0.0
12:06:54,737473.0,0.0,0.0
12:06:54,737543.0,0.0,0.0
12:06:54,737488.0,0.0,0.0
12:06:54,737566.0,0.0,0.0
12:06:54,737628.0,0.0,0.0
12:06:54,737639.0,0.0,0.0
12:06:54,737803.0,0.0,0.0
12:06:54,737813.0,0.0,0.0
12:06:54,737952.0,0.0,0.0
12:06:54,737998.0,0.0,0.0
12:06:54,738049.0,0.0,0.0
12:06:54,738178.0,0.0,0.0
12:06:54,738166.0,0.0,0.0
12:06:54,738257.0,0.0,0.0
12:06:54,738238.0,0.0,0.0
12:06:54,738136.0,0.0,0.0
12:06:54,738213.0,0.0,0.0
12:06:54,738154.0,0.0,0.0
12:06:54,738174.0,0.0,0.0
12:06:54,738168.0,0.0,0.0
12:06:54,738110.0,0.0,0.0
12:06:54,738164.0,0.0,0.0
12:06:54,738070.0,0.0,0.0
12:06:54,738096.0,0.0,0.0
12:06:54,738066.0,0.0,0.0
12:06:54,737989.0,0.0,0.0
12:06:54,738023.0,0.0,0.0
12:06:54,737926.0,0.0,0.0
12:06:54,737928.0,0.0,0.0
12:06:54,737921.0,0.0,0.0
12:06:54,737842.0,0.0,0.0
12:06:54,737899.0,0.0,0.0
12:06:54,737752.0,0.0,0.0
12:06:54,737763.0,0.0,0.0
12:06:54,737778.0,0.0,0.0
12:06:54,737759.0,0.0,0.0
12:06:54,737933.0,0.0,0.0
12:06:54,737820.0,0.0,0.0
12:06:54,737791.0,0.0,0.0
12:06:54,737773.0,0.0,0.0
12:06:54,737697.0,0.0,0.0
12:06:54,737746.0,0.0,0.0
12:06:54,737636.0,0.0,0.0
12:06:54,737669.0,0.0,0.0
12:06:54,737639.0,0.0,0.0
12:06:54,737553.0,0.0,0.0
12:06:54,737578.0,0.0,0.0
12:06:54,737461.0,0.0,0.0
12:06:54,737444.0,0.0,0.0
12:06:54,737348.0,0.0,0.0
12:06:54,737276.0,0.0,0.0
12:06:54,737311.0,0.0,0.0
12:06:54,737214.0,0.0,0.0
12:06:54,737243.0,0.0,0.0
12:06:54,737259.0,0.0,0.0
12:06:54,737214.0,0.0,0.0
12:06:54,737304.0,0.0,0.0
12:06:54,737217.0,0.0,0.0
12:06:54,737230.0,0.0,0.0
12:06:54,737225.0,0.0,0.0
12:06:54,737200.0,0.0,0.0
12:06:54,737250.0,0.0,0.0
12:06:54,737156.0,0.0,0.0
12:06:54,737209.0,0.0,0.0
12:06:55,737236.0,0.0,0.0
12:06:55,737198.0,0.0,0.0
12:06:55,737301.0,0.0,0.0
12:06:55,737248.0,0.0,0.0
12:06:55,737294.0,0.0,0.0
12:06:55,737306.0,0.0,0.0
12:06:55,737241.0,0.0,0.0
12:06:55,737334.0,0.0,0.0
12:06:55,737234.0,0.0,0.0
12:06:55,737297.0,0.0,0.0
12:06:55,737287.0,0.0,0.0
12:06:55,737223.0,0.0,0.0
12:06:55,737303.0,0.0,0.0
12:06:55,737246.0,0.0,0.0
12:06:55,737328.0,0.0,0.0
12:06:55,737337.0,0.0,0.0
12:06:55,737265.0,0.0,0.0
12:06:55,737351.0,0.0,0.0
12:06:55,737316.0,0.0,0.0
12:06:55,737361.0,0.0,0.0
12:06:55,737361.0,0.0,0.0
12:06:55,737301.0,0.0,0.0
12:06:55,737364.0,0.0,0.0
12:06:55,737251.0,0.0,0.0
12:06:55,737327.0,0.0,0.0
12:06:55,737349.0,0.0,0.0
12:06:55,737358.0,0.0,0.0
12:06:55,737455.0,0.0,0.0
12:06:55,737383.0,0.0,0.0
12:06:55,737461.0,0.0,0.0
12:06:55,737454.0,0.0,0.0
12:06:55,737423.0,0.0,0.0
12:06:55,737503.0,0.0,0.0
12:06:55,737449.0,0.0,0.0
12:06:55,737487.0,0.0,0.0
12:06:55,737478.0,0.0,0.0
12:06:55,737476.0,0.0,0.0
12:06:55,737539.0,0.0,0.0
12:06:55,737446.0,0.0,0.0
12:06:55,737484.0,0.0,0.0
12:06:55,737430.0,0.0,0.0
12:06:55,737326.0,0.0,0.0
12:06:55,737382.0,0.0,0.0
12:06:55,737357.0,0.0,0.0
12:06:55,737500.0,0.0,0.0
12:06:55,737536.0,0.0,0.0
12:06:55,737383.0,0.0,0.0
12:06:55,737381.0,0.0,0.0
12:06:55,737246.0,0.0,0.0
12:06:55,737231.0,0.0,0.0
12:06:55,737176.0,0.0,0.0
12:06:55,737118.0,0.0,0.0
12:06:55,737143.0,0.0,0.0
12:06:55,737023.0,0.0,0.0
12:06:55,737086.0,0.0,0.0
12:06:55,737066.0,0.0,0.0
12:06:55,736973.0,0.0,0.0
12:06:55,737031.0,0.0,0.0
12:06:55,736943.0,0.0,0.0
12:06:55,736959.0,0.0,0.0
12:06:55,736919.0,0.0,0.0
12:06:55,736858.0,0.0,0.0
12:06:55,736931.0,0.0,0.0
12:06:55,736844.0,0.0,0.0
12:06:55,736919.0,0.0,0.0
12:06:55,736932.0,0.0,0.0
12:06:55,736924.0,0.0,0.0
12:06:55,737027.0,0.0,0.0
12:06:55,736949.0,0.0,0.0
12:06:55,736994.0,0.0,0.0
12:06:55,737013.0,0.0,0.0
12:06:55,736961.0,0.0,0.0
12:06:55,737000.0,0.0,0.0
12:06:55,736882.0,0.0,0.0
12:06:55,736924.0,0.0,0.0
12:06:55,736886.0,0.0,0.0
12:06:55,736812.0,0.0,0.0
12:06:55,736855.0,0.0,0.0
12:06:55,736736.0,0.0,0.0
12:06:55,736758.0,0.0,0.0
12:06:55,736706.0,0.0,0.0
12:06:55,736663.0,0.0,0.0
12:06:55,736718.0,0.0,0.0
12:06:55,736633.0,0.0,0.0
12:06:55,736694.0,0.0,0.0
12:06:55,736624.0,0.0,0.0
12:06:55,736560.0,0.0,0.0
12:06:55,736590.0,0.0,0.0
12:06:55,736484.0,0.0,0.0
12:06:55,736513.0,0.0,0.0
12:06:55,736434.0,0.0,0.0
12:06:55,736384.0,0.0,0.0
12:06:55,736449.0,0.0,0.0
12:06:55,736353.0,0.0,0.0
12:06:55,736419.0,0.0,0.0
12:06:55,736428.0,0.0,0.0
12:06:55,736439.0,0.0,0.0
12:06:55,736581.0,0.0,0.0
12:06:55,736550.0,0.0,0.0
12:06:55,736666.0,0.0,0.0
12:06:55,736722.0,0.0,0.0
12:06:55,736722.0,0.0,0.0
12:06:55,736814.0,0.0,0.0
12:06:55,736782.0,0.0,0.0
12:06:55,736910.0,0.0,0.0
12:06:55,736919.0,0.0,0.0
12:06:55,736918.0,0.0,0.0
12:06:55,737034.0,0.0,0.0
12:06:55,736992.0,0.0,0.0
12:06:55,737029.0,0.0,0.0
12:06:55,737063.0,0.0,0.0
12:06:55,737058.0,0.0,0.0
12:06:55,737114.0,0.0,0.0
12:06:55,737042.0,0.0,0.0
12:06:55,737061.0,0.0,0.0
12:06:55,736997.0,0.0,0.0
12:06:55,736904.0,0.0,0.0
12:06:55,736915.0,0.0,0.0
12:06:55,736782.0,0.0,0.0
12:06:55,736747.0,0.0,0.0
12:06:55,736646.0,0.0,0.0
12:06:55,736536.0,0.0,0.0
12:06:55,736516.0,0.0,0.0
12:06:55,736401.0,0.0,0.0
12:06:55,736412.0,0.0,0.0
12:06:56,736395.0,0.0,0.0
12:06:56,736363.0,0.0,0.0
12:06:56,736431.0,0.0,0.0
12:06:56,736336.0,0.0,0.0
12:06:56,736375.0,0.0,0.0
12:06:56,736413.0,0.0,0.0
12:06:56,736487.0,0.0,0.0
12:06:56,736676.0,0.0,0.0
12:06:56,736576.0,0.0,0.0
12:06:56,736536.0,0.0,0.0
12:06:56,736466.0,0.0,0.0
12:06:56,736423.0,0.0,0.0
12:06:56,736458.0,0.0,0.0
12:06:56,736336.0,0.0,0.0
12:06:56,736387.0,0.0,0.0
12:06:56,736337.0,0.0,0.0
12:06:56,736234.0,0.0,0.0
12:06:56,736218.0,0.0,0.0
12:06:56,736139.0,0.0,0.0
12:06:56,736159.0,0.0,0.0
12:06:56,736099.0,0.0,0.0
12:06:56,736044.0,0.0,0.0
12:06:56,736042.0,0.0,0.0
12:06:56,735941.0,0.0,0.0
12:06:56,735976.0,0.0,0.0
12:06:56,735923.0,0.0,0.0
12:06:56,735849.0,0.0,0.0
12:06:56,735839.0,0.0,0.0
12:06:56,735754.0,0.0,0.0
12:06:56,735814.0,0.0,0.0
12:06:56,735752.0,0.0,0.0
12:06:56,735744.0,0.0,0.0
12:06:56,735804.0,0.0,0.0
12:06:56,735726.0,0.0,0.0
12:06:56,735772.0,0.0,0.0
12:06:56,735744.0,0.0,0.0
12:06:56,735704.0,0.0,0.0
12:06:56,735759.0,0.0,0.0
12:06:56,735659.0,0.0,0.0
12:06:56,735697.0,0.0,0.0
12:06:56,735670.0,0.0,0.0
12:06:56,735633.0,0.0,0.0
12:06:56,735692.0,0.0,0.0
12:06:56,735558.0,0.0,0.0
12:06:56,735604.0,0.0,0.0
12:06:56,735549.0,0.0,0.0
12:06:56,735511.0,0.0,0.0
12:06:56,735589.0,0.0,0.0
12:06:56,735490.0,0.0,0.0
12:06:56,735541.0,0.0,0.0
12:06:56,735553.0,0.0,0.0
12:06:56,735534.0,0.0,0.0
12:06:56,735623.0,0.0,0.0
12:06:56,735553.0,0.0,0.0
12:06:56,735612.0,0.0,0.0
12:06:56,735603.0,0.0,0.0
12:06:56,735549.0,0.0,0.0
12:06:56,735643.0,0.0,0.0
12:06:56,735570.0,0.0,0.0
12:06:56,735620.0,0.0,0.0
12:06:56,735619.0,0.0,0.0
12:06:56,735613.0,0.0,0.0
12:06:56,735719.0,0.0,0.0
12:06:56,735682.0,0.0,0.0
12:06:56,735783.0,0.0,0.0
12:06:56,735799.0,0.0,0.0
12:06:56,735818.0,0.0,0.0
12:06:56,735919.0,0.0,0.0
12:06:56,735894.0,0.0,0.0
12:06:56,736013.0,0.0,0.0
12:06:56,736006.0,0.0,0.0
12:06:56,735985.0,0.0,0.0
12:06:56,736083.0,0.0,0.0
12:06:56,736002.0,0.0,0.0
12:06:56,736101.0,0.0,0.0
12:06:56,736117.0,0.0,0.0
12:06:56,736100.0,0.0,0.0
12:06:56,736186.0,0.0,0.0
12:06:56,736136.0,0.0,0.0
12:06:56,736196.0,0.0,0.0
12:06:56,736198.0,0.0,0.0
12:06:56,736173.0,0.0,0.0
12:06:56,736261.0,0.0,0.0
12:06:56,736199.0,0.0,0.0
12:06:56,736251.0,0.0,0.0
12:06:56,736224.0,0.0,0.0
12:06:56,736179.0,0.0,0.0
12:06:56,736251.0,0.0,0.0
12:06:56,736183.0,0.0,0.0
12:06:56,736243.0,0.0,0.0
12:06:56,736254.0,0.0,0.0
12:06:56,736254.0,0.0,0.0
12:06:56,736361.0,0.0,0.0
12:06:56,736310.0,0.0,0.0
12:06:56,736369.0,0.0,0.0
12:06:56,736349.0,0.0,0.0
12:06:56,736338.0,0.0,0.0
12:06:56,736390.0,0.0,0.0
12:06:56,736291.0,0.0,0.0
12:06:56,736362.0,0.0,0.0
12:06:56,736361.0,0.0,0.0
12:06:56,736349.0,0.0,0.0
12:06:56,736419.0,0.0,0.0
12:06:56,736348.0,0.0,0.0
12:06:56,736364.0,0.0,0.0
12:06:56,736349.0,0.0,0.0
12:06:56,736374.0,0.0,0.0
12:06:56,736484.0,0.0,0.0
12:06:56,736554.0,0.0,0.0
12:06:56,736623.0,0.0,0.0
12:06:56,736469.0,0.0,0.0
12:06:56,736426.0,0.0,0.0
12:06:56,736523.0,0.0,0.0
12:06:56,736439.0,0.0,0.0
12:06:56,736520.0,0.0,0.0
12:06:56,736509.0,0.0,0.0
12:06:56,736486.0,0.0,0.0
12:06:56,736554.0,0.0,0.0
12:06:56,736505.0,0.0,0.0
12:06:56,736549.0,0.0,0.0
12:06:56,736478.0,0.0,0.0
12:06:56,736442.0,0.0,0.0
12:06:56,736506.0,0.0,0.0
12:06:56,736419.0,0.0,0.0
12:06:56,736476.0,0.0,0.0
12:06:57,736426.0,0.0,0.0
12:06:57,736376.0,0.0,0.0
12:06:57,736442.0,0.0,0.0
12:06:57,736366.0,0.0,0.0
12:06:57,736394.0,0.0,0.0
12:06:57,736367.0,0.0,0.0
12:06:57,736318.0,0.0,0.0
12:06:57,736368.0,0.0,0.0
12:06:57,736268.0,0.0,0.0
12:06:57,736361.0,0.0,0.0
12:06:57,736324.0,0.0,0.0
12:06:57,736291.0,0.0,0.0
12:06:57,736319.0,0.0,0.0
12:06:57,736246.0,0.0,0.0
12:06:57,736334.0,0.0,0.0
12:06:57,736315.0,0.0,0.0
12:06:57,736261.0,0.0,0.0
12:06:57,736317.0,0.0,0.0
12:06:57,736237.0,0.0,0.0
12:06:57,736304.0,0.0,0.0
12:06:57,736246.0,0.0,0.0
12:06:57,736200.0,0.0,0.0
12:06:57,736271.0,0.0,0.0
12:06:57,736159.0,0.0,0.0
12:06:57,736206.0,0.0,0.0
12:06:57,736203.0,0.0,0.0
12:06:57,736154.0,0.0,0.0
12:06:57,736199.0,0.0,0.0
12:06:57,736111.0,0.0,0.0
12:06:57,736186.0,0.0,0.0
12:06:57,736162.0,0.0,0.0
12:06:57,736119.0,0.0,0.0
12:06:57,736173.0,0.0,0.0
12:06:57,736084.0,0.0,0.0
12:06:57,736142.0,0.0,0.0
12:06:57,736103.0,0.0,0.0
12:06:57,736051.0,0.0,0.0
12:06:57,736086.0,0.0,0.0
12:06:57,736006.0,0.0,0.0
12:06:57,736102.0,0.0,0.0
12:06:57,736064.0,0.0,0.0
12:06:57,736009.0,0.0,0.0
12:06:57,736083.0,0.0,0.0
12:06:57,736027.0,0.0,0.0
12:06:57,736088.0,0.0,0.0
12:06:57,736059.0,0.0,0.0
12:06:57,736043.0,0.0,0.0
12:06:57,736134.0,0.0,0.0
12:06:57,736059.0,0.0,0.0
12:06:57,736132.0,0.0,0.0
12:06:57,736088.0,0.0,0.0
12:06:57,736087.0,0.0,0.0
12:06:57,736171.0,0.0,0.0
12:06:57,736113.0,0.0,0.0
12:06:57,736207.0,0.0,0.0
12:06:57,736204.0,0.0,0.0
12:06:57,736186.0,0.0,0.0
12:06:57,736230.0,0.0,0.0
12:06:57,736164.0,0.0,0.0
12:06:57,736218.0,0.0,0.0
12:06:57,736204.0,0.0,0.0
12:06:57,736188.0,0.0,0.0
12:06:57,736262.0,0.0,0.0
12:06:57,736175.0,0.0,0.0
12:06:57,736253.0,0.0,0.0
12:06:57,736229.0,0.0,0.0
12:06:57,736160.0,0.0,0.0
12:06:57,736221.0,0.0,0.0
12:06:57,736125.0,0.0,0.0
12:06:57,736153.0,0.0,0.0
12:06:57,736121.0,0.0,0.0
12:06:57,736091.0,0.0,0.0
12:06:57,736132.0,0.0,0.0
12:06:57,736019.0,0.0,0.0
12:06:57,736042.0,0.0,0.0
12:06:57,736003.0,0.0,0.0
12:06:57,735983.0,0.0,0.0
12:06:57,735996.0,0.0,0.0
12:06:57,735864.0,0.0,0.0
12:06:57,735902.0,0.0,0.0
12:06:57,735913.0,0.0,0.0
12:06:57,735959.0,0.0,0.0
12:06:57,736136.0,0.0,0.0
12:06:57,735973.0,0.0,0.0
12:06:57,735944.0,0.0,0.0
12:06:57,735958.0,0.0,0.0
12:06:57,735928.0,0.0,0.0
12:06:57,735966.0,0.0,0.0
12:06:57,735899.0,0.0,0.0
12:06:57,735989.0,0.0,0.0
12:06:57,735963.0,0.0,0.0
12:06:57,735914.0,0.0,0.0
12:06:57,735980.0,0.0,0.0
12:06:57,735900.0,0.0,0.0
12:06:57,735943.0,0.0,0.0
12:06:57,735918.0,0.0,0.0
12:06:57,735883.0,0.0,0.0
12:06:57,735891.0,0.0,0.0
12:06:57,735794.0,0.0,0.0
12:06:57,735867.0,0.0,0.0
12:06:57,735830.0,0.0,0.0
12:06:57,735786.0,0.0,0.0
12:06:57,735834.0,0.0,0.0
12:06:57,735772.0,0.0,0.0
12:06:57,735838.0,0.0,0.0
12:06:57,735813.0,0.0,0.0
12:06:57,735838.0,0.0,0.0
12:06:57,735931.0,0.0,0.0
12:06:57,735883.0,0.0,0.0
12:06:57,735977.0,0.0,0.0
12:06:57,735991.0,0.0,0.0
12:06:57,735984.0,0.0,0.0
12:06:57,736025.0,0.0,0.0
12:06:57,735994.0,0.0,0.0
12:06:57,736102.0,0.0,0.0
12:06:57,736106.0,0.0,0.0
12:06:57,736087.0,0.0,0.0
12:06:57,736124.0,0.0,0.0
12:06:57,736044.0,0.0,0.0
12:06:57,736138.0,0.0,0.0
12:06:57,736071.0,0.0,0.0
12:06:57,736058.0,0.0,0.0
12:06:57,736116.0,0.0,0.0
12:06:57,736037.0,0.0,0.0
12:06:58,736098.0,0.0,0.0
12:06:58,736069.0,0.0,0.0
12:06:58,736075.0,0.0,0.0
12:06:58,736124.0,0.0,0.0
12:06:58,736034.0,0.0,0.0
12:06:58,736111.0,0.0,0.0
12:06:58,736109.0,0.0,0.0
12:06:58,736099.0,0.0,0.0
12:06:58,736164.0,0.0,0.0
12:06:58,736123.0,0.0,0.0
12:06:58,736181.0,0.0,0.0
12:06:58,736156.0,0.0,0.0
12:06:58,736136.0,0.0,0.0
12:06:58,736182.0,0.0,0.0
12:06:58,736119.0,0.0,0.0
12:06:58,736204.0,0.0,0.0
12:06:58,736151.0,0.0,0.0
12:06:58,736155.0,0.0,0.0
12:06:58,736232.0,0.0,0.0
12:06:58,736164.0,0.0,0.0
12:06:58,736243.0,0.0,0.0
12:06:58,736194.0,0.0,0.0
12:06:58,736175.0,0.0,0.0
12:06:58,736220.0,0.0,0.0
12:06:58,736149.0,0.0,0.0
12:06:58,736235.0,0.0,0.0
12:06:58,736187.0,0.0,0.0
12:06:58,736166.0,0.0,0.0
12:06:58,736245.0,0.0,0.0
12:06:58,736166.0,0.0,0.0
12:06:58,736238.0,0.0,0.0
12:06:58,736159.0,0.0,0.0
12:06:58,736138.0,0.0,0.0
12:06:58,736229.0,0.0,0.0
12:06:58,736159.0,0.0,0.0
12:06:58,736216.0,0.0,0.0
12:06:58,736176.0,0.0,0.0
12:06:58,736189.0,0.0,0.0
12:06:58,736270.0,0.0,0.0
12:06:58,736217.0,0.0,0.0
12:06:58,736253.0,0.0,0.0
12:06:58,736224.0,0.0,0.0
12:06:58,736188.0,0.0,0.0
12:06:58,736209.0,0.0,0.0
12:06:58,736059.0,0.0,0.0
12:06:58,736061.0,0.0,0.0
12:06:58,735993.0,0.0,0.0
12:06:58,735916.0,0.0,0.0
12:06:58,735884.0,0.0,0.0
12:06:58,735764.0,0.0,0.0
12:06:58,735809.0,0.0,0.0
12:06:58,735711.0,0.0,0.0
12:06:58,735619.0,0.0,0.0
12:06:58,735603.0,0.0,0.0
12:06:58,735595.0,0.0,0.0
12:06:58,735823.0,0.0,0.0
12:06:58,735952.0,0.0,0.0
12:06:58,736031.0,0.0,0.0
12:06:58,736039.0,0.0,0.0
12:06:58,735973.0,0.0,0.0
12:06:58,736099.0,0.0,0.0
12:06:58,736121.0,0.0,0.0
12:06:58,736197.0,0.0,0.0
12:06:58,736276.0,0.0,0.0
12:06:58,736197.0,0.0,0.0
12:06:58,736311.0,0.0,0.0
12:06:58,736270.0,0.0,0.0
12:06:58,736232.0,0.0,0.0
12:06:58,736233.0,0.0,0.0
12:06:58,736088.0,0.0,0.0
12:06:58,736106.0,0.0,0.0
12:06:58,735990.0,0.0,0.0
12:06:58,735874.0,0.0,0.0
12:06:58,735893.0,0.0,0.0
12:06:58,735745.0,0.0,0.0
12:06:58,735768.0,0.0,0.0
12:06:58,735678.0,0.0,0.0
12:06:58,735633.0,0.0,0.0
12:06:58,735654.0,0.0,0.0
12:06:58,735566.0,0.0,0.0
12:06:58,735637.0,0.0,0.0
12:06:58,735588.0,0.0,0.0
12:06:58,735590.0,0.0,0.0
12:06:58,735627.0,0.0,0.0
12:06:58,735520.0,0.0,0.0
12:06:58,735565.0,0.0,0.0
12:06:58,735536.0,0.0,0.0
12:06:58,735513.0,0.0,0.0
12:06:58,735581.0,0.0,0.0
12:06:58,735534.0,0.0,0.0
12:06:58,735651.0,0.0,0.0
12:06:58,735676.0,0.0,0.0
12:06:58,735709.0,0.0,0.0
12:06:58,735827.0,0.0,0.0
12:06:58,735842.0,0.0,0.0
12:06:58,736005.0,0.0,0.0
12:06:58,736042.0,0.0,0.0
12:06:58,736124.0,0.0,0.0
12:06:58,736264.0,0.0,0.0
12:06:58,736231.0,0.0,0.0
12:06:58,736338.0,0.0,0.0
12:06:58,736321.0,0.0,0.0
12:06:58,736293.0,0.0,0.0
12:06:58,736335.0,0.0,0.0
12:06:58,736211.0,0.0,0.0
12:06:58,736229.0,0.0,0.0
12:06:58,736141.0,0.0,0.0
12:06:58,736054.0,0.0,0.0
12:06:58,736075.0,0.0,0.0
12:06:58,735958.0,0.0,0.0
12:06:58,735954.0,0.0,0.0
12:06:58,735886.0,0.0,0.0
12:06:58,735875.0,0.0,0.0
12:06:58,735904.0,0.0,0.0
12:06:58,735822.0,0.0,0.0
12:06:58,735896.0,0.0,0.0
12:06:58,735827.0,0.0,0.0
12:06:58,735805.0,0.0,0.0
12:06:58,735811.0,0.0,0.0
12:06:58,735755.0,0.0,0.0
12:06:58,735798.0,0.0,0.0
12:06:58,735724.0,0.0,0.0
12:06:58,735716.0,0.0,0.0
12:06:58,735739.0,0.0,0.0
12:06:58,735653.0,0.0,0.0
12:06:58,735661.0,0.0,0.0
12:06:59,735617.0,0.0,0.0
12:06:59,735630.0,0.0,0.0
12:06:59,735613.0,0.0,0.0
12:06:59,735553.0,0.0,0.0
12:06:59,735614.0,0.0,0.0
12:06:59,735576.0,0.0,0.0
12:06:59,735609.0,0.0,0.0
12:06:59,735676.0,0.0,0.0
12:06:59,735608.0,0.0,0.0
12:06:59,735708.0,0.0,0.0
12:06:59,735724.0,0.0,0.0
12:06:59,735796.0,0.0,0.0
12:06:59,735910.0,0.0,0.0
12:06:59,735876.0,0.0,0.0
12:06:59,736000.0,0.0,0.0
12:06:59,735966.0,0.0,0.0
12:06:59,735983.0,0.0,0.0
12:06:59,736053.0,0.0,0.0
12:06:59,736003.0,0.0,0.0
12:06:59,736081.0,0.0,0.0
12:06:59,736033.0,0.0,0.0
12:06:59,736018.0,0.0,0.0
12:06:59,736059.0,0.0,0.0
12:06:59,735959.0,0.0,0.0
12:06:59,735947.0,0.0,0.0
12:06:59,735829.0,0.0,0.0
12:06:59,735892.0,0.0,0.0
12:06:59,736019.0,0.0,0.0
12:06:59,736053.0,0.0,0.0
12:06:59,736149.0,0.0,0.0
12:06:59,735949.0,0.0,0.0
12:06:59,735922.0,0.0,0.0
12:06:59,735946.0,0.0,0.0
12:06:59,735874.0,0.0,0.0
12:06:59,735943.0,0.0,0.0
12:06:59,735906.0,0.0,0.0
12:06:59,735931.0,0.0,0.0
12:06:59,736047.0,0.0,0.0
12:06:59,736021.0,0.0,0.0
12:06:59,736126.0,0.0,0.0
12:06:59,736096.0,0.0,0.0
12:06:59,736108.0,0.0,0.0
12:06:59,736138.0,0.0,0.0
12:06:59,736041.0,0.0,0.0
12:06:59,736094.0,0.0,0.0
12:06:59,736029.0,0.0,0.0
12:06:59,735954.0,0.0,0.0
12:06:59,735968.0,0.0,0.0
12:06:59,735836.0,0.0,0.0
12:06:59,735880.0,0.0,0.0
12:06:59,735821.0,0.0,0.0
12:06:59,735821.0,0.0,0.0
12:06:59,735888.0,0.0,0.0
12:06:59,735846.0,0.0,0.0
12:06:59,735947.0,0.0,0.0
12:06:59,735933.0,0.0,0.0
12:06:59,735973.0,0.0,0.0
12:06:59,736097.0,0.0,0.0
12:06:59,736067.0,0.0,0.0
12:06:59,736221.0,0.0,0.0
12:06:59,736260.0,0.0,0.0
12:06:59,736288.0,0.0,0.0
12:06:59,736378.0,0.0,0.0
12:06:59,736374.0,0.0,0.0
12:06:59,736440.0,0.0,0.0
12:06:59,736406.0,0.0,0.0
12:06:59,736424.0,0.0,0.0
12:06:59,736446.0,0.0,0.0
12:06:59,736340.0,0.0,0.0
12:06:59,736364.0,0.0,0.0
12:06:59,736268.0,0.0,0.0
12:06:59,736249.0,0.0,0.0
12:06:59,736233.0,0.0,0.0
12:06:59,736114.0,0.0,0.0
12:06:59,736157.0,0.0,0.0
12:06:59,736047.0,0.0,0.0
12:06:59,736013.0,0.0,0.0
12:06:59,736031.0,0.0,0.0
12:06:59,735941.0,0.0,0.0
12:06:59,735964.0,0.0,0.0
12:06:59,735918.0,0.0,0.0
12:06:59,735931.0,0.0,0.0
12:06:59,735979.0,0.0,0.0
12:06:59,735846.0,0.0,0.0
12:06:59,735939.0,0.0,0.0
12:06:59,735894.0,0.0,0.0
12:06:59,735892.0,0.0,0.0
12:06:59,735908.0,0.0,0.0
12:06:59,735842.0,0.0,0.0
12:06:59,735931.0,0.0,0.0
12:06:59,735883.0,0.0,0.0
12:06:59,735873.0,0.0,0.0
12:06:59,735874.0,0.0,0.0
12:06:59,735727.0,0.0,0.0
12:06:59,735715.0,0.0,0.0
12:06:59,735582.0,0.0,0.0
12:06:59,735470.0,0.0,0.0
12:06:59,735470.0,0.0,0.0
12:06:59,735331.0,0.0,0.0
12:06:59,735369.0,0.0,0.0
12:06:59,735294.0,0.0,0.0
12:06:59,735259.0,0.0,0.0
12:06:59,735309.0,0.0,0.0
12:06:59,735302.0,0.0,0.0
12:06:59,735384.0,0.0,0.0
12:06:59,735372.0,0.0,0.0
12:06:59,735409.0,0.0,0.0
12:06:59,735498.0,0.0,0.0
12:06:59,735479.0,0.0,0.0
12:06:59,735591.0,0.0,0.0
12:06:59,735585.0,0.0,0.0
12:06:59,735664.0,0.0,0.0
12:06:59,735764.0,0.0,0.0
12:06:59,735726.0,0.0,0.0
12:06:59,735838.0,0.0,0.0
12:06:59,735807.0,0.0,0.0
12:06:59,735832.0,0.0,0.0
12:06:59,735875.0,0.0,0.0
12:06:59,735757.0,0.0,0.0
12:06:59,735736.0,0.0,0.0
12:06:59,735676.0,0.0,0.0
12:06:59,735739.0,0.0,0.0
12:06:59,735814.0,0.0,0.0
12:06:59,735836.0,0.0,0.0
12:06:59,735824.0,0.0,0.0
12:07:00,735627.0,0.0,0.0
12:07:00,735543.0,0.0,0.0
12:07:00,735576.0,0.0,0.0
12:07:00,735509.0,0.0,0.0
12:07:00,735574.0,0.0,0.0
12:07:00,735533.0,0.0,0.0
12:07:00,735599.0,0.0,0.0
12:07:00,735638.0,0.0,0.0
12:07:00,735559.0,0.0,0.0
12:07:00,735663.0,0.0,0.0
12:07:00,735601.0,0.0,0.0
12:07:00,735599.0,0.0,0.0
12:07:00,735638.0,0.0,0.0
12:07:00,735583.0,0.0,0.0
12:07:00,735628.0,0.0,0.0
12:07:00,735548.0,0.0,0.0
12:07:00,735530.0,0.0,0.0
12:07:00,735556.0,0.0,0.0
12:07:00,735458.0,0.0,0.0
12:07:00,735505.0,0.0,0.0
12:07:00,735413.0,0.0,0.0
12:07:00,735419.0,0.0,0.0
12:07:00,735485.0,0.0,0.0
12:07:00,735456.0,0.0,0.0
12:07:00,735550.0,0.0,0.0
12:07:00,735524.0,0.0,0.0
12:07:00,735558.0,0.0,0.0
12:07:00,735579.0,0.0,0.0
12:07:00,735473.0,0.0,0.0
12:07:00,735550.0,0.0,0.0
12:07:00,735474.0,0.0,0.0
12:07:00,735479.0,0.0,0.0
12:07:00,735509.0,0.0,0.0
12:07:00,735448.0,0.0,0.0
12:07:00,735560.0,0.0,0.0
12:07:00,735536.0,0.0,0.0
12:07:00,735582.0,0.0,0.0
12:07:00,735653.0,0.0,0.0
12:07:00,735604.0,0.0,0.0
12:07:00,735742.0,0.0,0.0
12:07:00,735768.0,0.0,0.0
12:07:00,735828.0,0.0,0.0
12:07:00,735891.0,0.0,0.0
12:07:00,735906.0,0.0,0.0
12:07:00,736048.0,0.0,0.0
12:07:00,736057.0,0.0,0.0
12:07:00,736112.0,0.0,0.0
12:07:00,736183.0,0.0,0.0
12:07:00,736106.0,0.0,0.0
12:07:00,736178.0,0.0,0.0
12:07:00,736096.0,0.0,0.0
12:07:00,736113.0,0.0,0.0
12:07:00,736126.0,0.0,0.0
12:07:00,736021.0,0.0,0.0
12:07:00,736037.0,0.0,0.0
12:07:00,735905.0,0.0,0.0
12:07:00,735891.0,0.0,0.0
12:07:00,735892.0,0.0,0.0
12:07:00,735797.0,0.0,0.0
12:07:00,735826.0,0.0,0.0
12:07:00,735708.0,0.0,0.0
12:07:00,735711.0,0.0,0.0
12:07:00,735738.0,0.0,0.0
12:07:00,735685.0,0.0,0.0
12:07:00,735787.0,0.0,0.0
12:07:00,735764.0,0.0,0.0
12:07:00,735807.0,0.0,0.0
12:07:00,735856.0,0.0,0.0
12:07:00,735811.0,0.0,0.0
12:07:00,735973.0,0.0,0.0
12:07:00,736131.0,0.0,0.0
12:07:00,736407.0,0.0,0.0
12:07:00,736691.0,0.0,0.0
12:07:00,736792.0,0.0,0.0
12:07:00,736860.0,0.0,0.0
12:07:00,736728.0,0.0,0.0
12:07:00,736613.0,0.0,0.0
12:07:00,736536.0,0.0,0.0
12:07:00,736349.0,0.0,0.0
12:07:00,736288.0,0.0,0.0
12:07:00,736089.0,0.0,0.0
12:07:00,735943.0,0.0,0.0
12:07:00,735818.0,0.0,0.0
12:07:00,735556.0,0.0,0.0
12:07:00,735399.0,0.0,0.0
12:07:00,735146.0,0.0,0.0
12:07:00,734969.0,0.0,0.0
12:07:00,734882.0,0.0,0.0
12:07:00,734727.0,0.0,0.0
12:07:00,734567.0,0.0,0.0
12:07:00,734192.0,0.0,0.0
12:07:00,733986.0,0.0,0.0
12:07:00,733819.0,0.0,0.0
12:07:00,733549.0,0.0,0.0
12:07:00,733208.0,0.0,0.0
12:07:00,733114.0,0.0,0.0
12:07:00,733403.0,0.0,0.0
12:07:00,733725.0,0.0,0.0
12:07:00,733938.0,0.0,0.0
12:07:00,734281.0,0.0,0.0
12:07:00,734501.0,0.0,0.0
12:07:00,734772.0,0.0,0.0
12:07:00,735103.0,0.0,0.0
12:07:00,735283.0,0.0,0.0
12:07:00,735611.0,0.0,0.0
12:07:00,735813.0,0.0,0.0
12:07:00,736003.0,0.0,0.0
12:07:00,736228.0,0.0,0.0
12:07:00,736312.0,0.0,0.0
12:07:00,736475.0,0.0,0.0
12:07:00,736463.0,0.0,0.0
12:07:00,736491.0,0.0,0.0
12:07:00,736522.0,0.0,0.0
12:07:00,736439.0,0.0,0.0
12:07:00,736553.0,0.0,0.0
12:07:00,736513.0,0.0,0.0
12:07:00,736490.0,0.0,0.0
12:07:00,736468.0,0.0,0.0
12:07:00,736306.0,0.0,0.0
12:07:00,736300.0,0.0,0.0
12:07:00,736186.0,0.0,0.0
12:07:00,736117.0,0.0,0.0
12:07:00,736076.0,0.0,0.0
12:07:00,735881.0,0.0,0.0
12:07:00,735826.0,0.0,0.0
12:07:01,735643.0,0.0,0.0
12:07:01,735489.0,0.0,0.0
12:07:01,735298.0,0.0,0.0
12:07:01,734808.0,0.0,0.0
12:07:01,734496.0,0.0,0.0
12:07:01,734449.0,0.0,0.0
12:07:01,734653.0,0.0,0.0
12:07:01,734853.0,0.0,0.0
12:07:01,734959.0,0.0,0.0
12:07:01,735147.0,0.0,0.0
12:07:01,735219.0,0.0,0.0
12:07:01,735334.0,0.0,0.0
12:07:01,735443.0,0.0,0.0
12:07:01,735442.0,0.0,0.0
12:07:01,735549.0,0.0,0.0
12:07:01,735510.0,0.0,0.0
12:07:01,735573.0,0.0,0.0
12:07:01,735699.0,0.0,0.0
12:07:01,735739.0,0.0,0.0
12:07:01,735896.0,0.0,0.0
12:07:01,735970.0,0.0,0.0
12:07:01,736179.0,0.0,0.0
12:07:01,736403.0,0.0,0.0
12:07:01,736479.0,0.0,0.0
12:07:01,736609.0,0.0,0.0
12:07:01,736519.0,0.0,0.0
12:07:01,736460.0,0.0,0.0
12:07:01,736392.0,0.0,0.0
12:07:01,736224.0,0.0,0.0
12:07:01,736163.0,0.0,0.0
12:07:01,735966.0,0.0,0.0
12:07:01,735871.0,0.0,0.0
12:07:01,735804.0,0.0,0.0
12:07:01,735591.0,0.0,0.0
12:07:01,735521.0,0.0,0.0
12:07:01,735274.0,0.0,0.0
12:07:01,735043.0,0.0,0.0
12:07:01,734818.0,0.0,0.0
12:07:01,734502.0,0.0,0.0
12:07:01,734361.0,0.0,0.0
12:07:01,734091.0,0.0,0.0
12:07:01,733896.0,0.0,0.0
12:07:01,733761.0,0.0,0.0
12:07:01,733526.0,0.0,0.0
12:07:01,733423.0,0.0,0.0
12:07:01,733259.0,0.0,0.0
12:07:01,733226.0,0.0,0.0
12:07:01,733361.0,0.0,0.0
12:07:01,733500.0,0.0,0.0
12:07:01,733789.0,0.0,0.0
12:07:01,733668.0,0.0,0.0
12:07:01,733666.0,0.0,0.0
12:07:01,733821.0,0.0,0.0
12:07:01,733868.0,0.0,0.0
12:07:01,734048.0,0.0,0.0
12:07:01,734078.0,0.0,0.0
12:07:01,734169.0,0.0,0.0
12:07:01,734243.0,0.0,0.0
12:07:01,734168.0,0.0,0.0
12:07:01,734237.0,0.0,0.0
12:07:01,734191.0,0.0,0.0
12:07:01,734189.0,0.0,0.0
12:07:01,734220.0,0.0,0.0
12:07:01,734094.0,0.0,0.0
12:07:01,734143.0,0.0,0.0
12:07:01,734016.0,0.0,0.0
12:07:01,733978.0,0.0,0.0
12:07:01,733940.0,0.0,0.0
12:07:01,733868.0,0.0,0.0
12:07:01,733958.0,0.0,0.0
12:07:01,733954.0,0.0,0.0
12:07:01,734029.0,0.0,0.0
12:07:01,734118.0,0.0,0.0
12:07:01,734114.0,0.0,0.0
12:07:01,734244.0,0.0,0.0
12:07:01,734297.0,0.0,0.0
12:07:01,734409.0,0.0,0.0
12:07:01,734509.0,0.0,0.0
12:07:01,734509.0,0.0,0.0
12:07:01,734627.0,0.0,0.0
12:07:01,734611.0,0.0,0.0
12:07:01,734689.0,0.0,0.0
12:07:01,734760.0,0.0,0.0
12:07:01,734657.0,0.0,0.0
12:07:01,734707.0,0.0,0.0
12:07:01,734566.0,0.0,0.0
12:07:01,734540.0,0.0,0.0
12:07:01,734608.0,0.0,0.0
12:07:01,734676.0,0.0,0.0
12:07:01,734853.0,0.0,0.0
12:07:01,734779.0,0.0,0.0
12:07:01,734784.0,0.0,0.0
12:07:01,734854.0,0.0,0.0
12:07:01,734819.0,0.0,0.0
12:07:01,734976.0,0.0,0.0
12:07:01,734996.0,0.0,0.0
12:07:01,735061.0,0.0,0.0
12:07:01,735163.0,0.0,0.0
12:07:01,735134.0,0.0,0.0
12:07:01,735186.0,0.0,0.0
12:07:01,735086.0,0.0,0.0
12:07:01,735154.0,0.0,0.0
12:07:01,735166.0,0.0,0.0
12:07:01,735003.0,0.0,0.0
12:07:01,735126.0,0.0,0.0
12:07:01,735081.0,0.0,0.0
12:07:01,735095.0,0.0,0.0
12:07:01,735127.0,0.0,0.0
12:07:01,735023.0,0.0,0.0
12:07:01,735126.0,0.0,0.0
12:07:01,735051.0,0.0,0.0
12:07:01,735054.0,0.0,0.0
12:07:01,735114.0,0.0,0.0
12:07:01,734996.0,0.0,0.0
12:07:01,735059.0,0.0,0.0
12:07:01,734934.0,0.0,0.0
12:07:01,734924.0,0.0,0.0
12:07:01,734978.0,0.0,0.0
12:07:01,734884.0,0.0,0.0
12:07:01,734991.0,0.0,0.0
12:07:01,734988.0,0.0,0.0
12:07:01,735032.0,0.0,0.0
12:07:01,735101.0,0.0,0.0
12:07:01,735062.0,0.0,0.0
12:07:02,735118.0,0.0,0.0
12:07:02,735017.0,0.0,0.0
12:07:02,735119.0,0.0,0.0
12:07:02,735231.0,0.0,0.0
12:07:02,735315.0,0.0,0.0
12:07:02,735523.0,0.0,0.0
12:07:02,735304.0,0.0,0.0
12:07:02,735233.0,0.0,0.0
12:07:02,735205.0,0.0,0.0
12:07:02,735130.0,0.0,0.0
12:07:02,735183.0,0.0,0.0
12:07:02,735114.0,0.0,0.0
12:07:02,735144.0,0.0,0.0
12:07:02,735200.0,0.0,0.0
12:07:02,735137.0,0.0,0.0
12:07:02,735258.0,0.0,0.0
12:07:02,735208.0,0.0,0.0
12:07:02,735186.0,0.0,0.0
12:07:02,735171.0,0.0,0.0
12:07:02,735067.0,0.0,0.0
12:07:02,735246.0,0.0,0.0
12:07:02,735261.0,0.0,0.0
12:07:02,735209.0,0.0,0.0
12:07:02,735129.0,0.0,0.0
12:07:02,735072.0,0.0,0.0
12:07:02,735273.0,0.0,0.0
12:07:02,735122.0,0.0,0.0
12:07:02,735154.0,0.0,0.0
12:07:02,735218.0,0.0,0.0
12:07:02,735064.0,0.0,0.0
12:07:02,735213.0,0.0,0.0
12:07:02,735185.0,0.0,0.0
12:07:02,735219.0,0.0,0.0
12:07:02,735260.0,0.0,0.0
12:07:02,735083.0,0.0,0.0
12:07:02,735059.0,0.0,0.0
12:07:02,734927.0,0.0,0.0
12:07:02,734952.0,0.0,0.0
12:07:02,734912.0,0.0,0.0
12:07:02,734779.0,0.0,0.0
12:07:02,734846.0,0.0,0.0
12:07:02,734797.0,0.0,0.0
12:07:02,734830.0,0.0,0.0
12:07:02,734844.0,0.0,0.0
12:07:02,734791.0,0.0,0.0
12:07:02,734964.0,0.0,0.0
12:07:02,735021.0,0.0,0.0
12:07:02,735168.0,0.0,0.0
12:07:02,735177.0,0.0,0.0
12:07:02,735089.0,0.0,0.0
12:07:02,735230.0,0.0,0.0
12:07:02,735183.0,0.0,0.0
12:07:02,735253.0,0.0,0.0
12:07:02,735314.0,0.0,0.0
12:07:02,735317.0,0.0,0.0
12:07:02,735484.0,0.0,0.0
12:07:02,735419.0,0.0,0.0
12:07:02,735454.0,0.0,0.0
12:07:02,735444.0,0.0,0.0
12:07:02,735395.0,0.0,0.0
12:07:02,735553.0,0.0,0.0
12:07:02,735508.0,0.0,0.0
12:07:02,735510.0,0.0,0.0
12:07:02,735529.0,0.0,0.0
12:07:02,735461.0,0.0,0.0
12:07:02,735546.0,0.0,0.0
12:07:02,735493.0,0.0,0.0
12:07:02,735513.0,0.0,0.0
12:07:02,735541.0,0.0,0.0
12:07:02,735476.0,0.0,0.0
12:07:02,735586.0,0.0,0.0
12:07:02,735521.0,0.0,0.0
12:07:02,735507.0,0.0,0.0
12:07:02,735471.0,0.0,0.0
12:07:02,735313.0,0.0,0.0
12:07:02,735338.0,0.0,0.0
12:07:02,735274.0,0.0,0.0
12:07:02,735369.0,0.0,0.0
12:07:02,735510.0,0.0,0.0
12:07:02,735612.0,0.0,0.0
12:07:02,735585.0,0.0,0.0
12:07:02,735414.0,0.0,0.0
12:07:02,735486.0,0.0,0.0
12:07:02,735527.0,0.0,0.0
12:07:02,735487.0,0.0,0.0
12:07:02,735653.0,0.0,0.0
12:07:02,735614.0,0.0,0.0
12:07:02,735689.0,0.0,0.0
12:07:02,735729.0,0.0,0.0
12:07:02,735654.0,0.0,0.0
12:07:02,735767.0,0.0,0.0
12:07:02,735678.0,0.0,0.0
12:07:02,735748.0,0.0,0.0
12:07:02,735780.0,0.0,0.0
12:07:02,735699.0,0.0,0.0
12:07:02,735793.0,0.0,0.0
12:07:02,735744.0,0.0,0.0
12:07:02,735834.0,0.0,0.0
12:07:02,735924.0,0.0,0.0
12:07:02,735955.0,0.0,0.0
12:07:02,736213.0,0.0,0.0
12:07:02,736236.0,0.0,0.0
12:07:02,736414.0,0.0,0.0
12:07:02,736607.0,0.0,0.0
12:07:02,736666.0,0.0,0.0
12:07:02,736866.0,0.0,0.0
12:07:02,736891.0,0.0,0.0
12:07:02,736977.0,0.0,0.0
12:07:02,737048.0,0.0,0.0
12:07:02,736953.0,0.0,0.0
12:07:02,736984.0,0.0,0.0
12:07:02,736868.0,0.0,0.0
12:07:02,736854.0,0.0,0.0
12:07:02,736798.0,0.0,0.0
12:07:02,736702.0,0.0,0.0
12:07:02,736748.0,0.0,0.0
12:07:02,736628.0,0.0,0.0
12:07:02,736608.0,0.0,0.0
12:07:02,736548.0,0.0,0.0
12:07:02,736386.0,0.0,0.0
12:07:02,736337.0,0.0,0.0
12:07:02,736086.0,0.0,0.0
12:07:02,736088.0,0.0,0.0
12:07:02,736033.0,0.0,0.0
12:07:02,735886.0,0.0,0.0
12:07:03,735942.0,0.0,0.0
12:07:03,735889.0,0.0,0.0
12:07:03,735926.0,0.0,0.0
12:07:03,735881.0,0.0,0.0
12:07:03,735784.0,0.0,0.0
12:07:03,735809.0,0.0,0.0
12:07:03,735656.0,0.0,0.0
12:07:03,735681.0,0.0,0.0
12:07:03,735681.0,0.0,0.0
12:07:03,735584.0,0.0,0.0
12:07:03,735656.0,0.0,0.0
12:07:03,735570.0,0.0,0.0
12:07:03,735565.0,0.0,0.0
12:07:03,735516.0,0.0,0.0
12:07:03,735431.0,0.0,0.0
12:07:03,735516.0,0.0,0.0
12:07:03,735419.0,0.0,0.0
12:07:03,735487.0,0.0,0.0
12:07:03,735459.0,0.0,0.0
12:07:03,735359.0,0.0,0.0
12:07:03,735396.0,0.0,0.0
12:07:03,735186.0,0.0,0.0
12:07:03,735041.0,0.0,0.0
12:07:03,734944.0,0.0,0.0
12:07:03,734828.0,0.0,0.0
12:07:03,734932.0,0.0,0.0
12:07:03,734910.0,0.0,0.0
12:07:03,734748.0,0.0,0.0
12:07:03,734550.0,0.0,0.0
12:07:03,734430.0,0.0,0.0
12:07:03,734461.0,0.0,0.0
12:07:03,734244.0,0.0,0.0
12:07:03,734176.0,0.0,0.0
12:07:03,734085.0,0.0,0.0
12:07:03,733922.0,0.0,0.0
12:07:03,733874.0,0.0,0.0
12:07:03,733613.0,0.0,0.0
12:07:03,733508.0,0.0,0.0
12:07:03,733469.0,0.0,0.0
12:07:03,733361.0,0.0,0.0
12:07:03,733473.0,0.0,0.0
12:07:03,733468.0,0.0,0.0
12:07:03,733648.0,0.0,0.0
12:07:03,733788.0,0.0,0.0
12:07:03,733834.0,0.0,0.0
12:07:03,733855.0,0.0,0.0
12:07:03,733698.0,0.0,0.0
12:07:03,733717.0,0.0,0.0
12:07:03,733664.0,0.0,0.0
12:07:03,733594.0,0.0,0.0
12:07:03,733717.0,0.0,0.0
12:07:03,733621.0,0.0,0.0
12:07:03,733715.0,0.0,0.0
12:07:03,733798.0,0.0,0.0
12:07:03,733782.0,0.0,0.0
12:07:03,733894.0,0.0,0.0
12:07:03,733857.0,0.0,0.0
12:07:03,733951.0,0.0,0.0
12:07:03,733985.0,0.0,0.0
12:07:03,733920.0,0.0,0.0
12:07:03,734032.0,0.0,0.0
12:07:03,734056.0,0.0,0.0
12:07:03,734212.0,0.0,0.0
12:07:03,734308.0,0.0,0.0
12:07:03,734354.0,0.0,0.0
12:07:03,734529.0,0.0,0.0
12:07:03,734507.0,0.0,0.0
12:07:03,734614.0,0.0,0.0
12:07:03,734654.0,0.0,0.0
12:07:03,734626.0,0.0,0.0
12:07:03,734753.0,0.0,0.0
12:07:03,734726.0,0.0,0.0
12:07:03,734884.0,0.0,0.0
12:07:03,734951.0,0.0,0.0
12:07:03,734934.0,0.0,0.0
12:07:03,735028.0,0.0,0.0
12:07:03,734908.0,0.0,0.0
12:07:03,734952.0,0.0,0.0
12:07:03,734927.0,0.0,0.0
12:07:03,734854.0,0.0,0.0
12:07:03,734932.0,0.0,0.0
12:07:03,734791.0,0.0,0.0
12:07:03,734768.0,0.0,0.0
12:07:03,734699.0,0.0,0.0
12:07:03,734505.0,0.0,0.0
12:07:03,734439.0,0.0,0.0
12:07:03,734222.0,0.0,0.0
12:07:03,734109.0,0.0,0.0
12:07:03,734032.0,0.0,0.0
12:07:03,733909.0,0.0,0.0
12:07:03,733893.0,0.0,0.0
12:07:03,733724.0,0.0,0.0
12:07:03,733694.0,0.0,0.0
12:07:03,733599.0,0.0,0.0
12:07:03,733422.0,0.0,0.0
12:07:03,733508.0,0.0,0.0
12:07:03,733437.0,0.0,0.0
12:07:03,733576.0,0.0,0.0
12:07:03,733723.0,0.0,0.0
12:07:03,733575.0,0.0,0.0
12:07:03,733578.0,0.0,0.0
12:07:03,733556.0,0.0,0.0
12:07:03,733686.0,0.0,0.0
12:07:03,733714.0,0.0,0.0
12:07:03,733728.0,0.0,0.0
12:07:03,733909.0,0.0,0.0
12:07:03,733881.0,0.0,0.0
12:07:03,733969.0,0.0,0.0
12:07:03,734031.0,0.0,0.0
12:07:03,734023.0,0.0,0.0
12:07:03,734192.0,0.0,0.0
12:07:03,734284.0,0.0,0.0
12:07:03,734433.0,0.0,0.0
12:07:03,734608.0,0.0,0.0
12:07:03,734738.0,0.0,0.0
12:07:03,734996.0,0.0,0.0
12:07:03,735161.0,0.0,0.0
12:07:03,735410.0,0.0,0.0
12:07:03,735559.0,0.0,0.0
12:07:03,735599.0,0.0,0.0
12:07:03,735714.0,0.0,0.0
12:07:03,735659.0,0.0,0.0
12:07:03,735691.0,0.0,0.0
12:07:03,735658.0,0.0,0.0
12:07:03,735568.0,0.0,0.0
12:07:04,735548.0,0.0,0.0
12:07:04,735429.0,0.0,0.0
12:07:04,735510.0,0.0,0.0
12:07:04,735535.0,0.0,0.0
12:07:04,735530.0,0.0,0.0
12:07:04,735641.0,0.0,0.0
12:07:04,735558.0,0.0,0.0
12:07:04,735553.0,0.0,0.0
12:07:04,735478.0,0.0,0.0
12:07:04,735388.0,0.0,0.0
12:07:04,735454.0,0.0,0.0
12:07:04,735364.0,0.0,0.0
12:07:04,735418.0,0.0,0.0
12:07:04,735363.0,0.0,0.0
12:07:04,735306.0,0.0,0.0
12:07:04,735306.0,0.0,0.0
12:07:04,735071.0,0.0,0.0
12:07:04,735100.0,0.0,0.0
12:07:04,735098.0,0.0,0.0
12:07:04,735059.0,0.0,0.0
12:07:04,735135.0,0.0,0.0
12:07:04,735075.0,0.0,0.0
12:07:04,735242.0,0.0,0.0
12:07:04,735358.0,0.0,0.0
12:07:04,735433.0,0.0,0.0
12:07:04,735646.0,0.0,0.0
12:07:04,735708.0,0.0,0.0
12:07:04,735973.0,0.0,0.0
12:07:04,736216.0,0.0,0.0
12:07:04,736372.0,0.0,0.0
12:07:04,736586.0,0.0,0.0
12:07:04,736623.0,0.0,0.0
12:07:04,736801.0,0.0,0.0
12:07:04,736925.0,0.0,0.0
12:07:04,736945.0,0.0,0.0
12:07:04,737133.0,0.0,0.0
12:07:04,737216.0,0.0,0.0
12:07:04,737400.0,0.0,0.0
12:07:04,737450.0,0.0,0.0
12:07:04,737334.0,0.0,0.0
12:07:04,737513.0,0.0,0.0
12:07:04,737533.0,0.0,0.0
12:07:04,737506.0,0.0,0.0
12:07:04,737326.0,0.0,0.0
12:07:04,737168.0,0.0,0.0
12:07:04,737167.0,0.0,0.0
12:07:04,737029.0,0.0,0.0
12:07:04,737129.0,0.0,0.0
12:07:04,736979.0,0.0,0.0
12:07:04,736611.0,0.0,0.0
12:07:04,736459.0,0.0,0.0
12:07:04,736155.0,0.0,0.0
12:07:04,736134.0,0.0,0.0
12:07:04,736031.0,0.0,0.0
12:07:04,735853.0,0.0,0.0
12:07:04,735852.0,0.0,0.0
12:07:04,735704.0,0.0,0.0
12:07:04,735688.0,0.0,0.0
12:07:04,735533.0,0.0,0.0
12:07:04,735353.0,0.0,0.0
12:07:04,735320.0,0.0,0.0
12:07:04,735186.0,0.0,0.0
12:07:04,735204.0,0.0,0.0
12:07:04,735138.0,0.0,0.0
12:07:04,735097.0,0.0,0.0
12:07:04,735188.0,0.0,0.0
12:07:04,735096.0,0.0,0.0
12:07:04,735203.0,0.0,0.0
12:07:04,735203.0,0.0,0.0
12:07:04,735251.0,0.0,0.0
12:07:04,735424.0,0.0,0.0
12:07:04,735450.0,0.0,0.0
12:07:04,735600.0,0.0,0.0
12:07:04,735689.0,0.0,0.0
12:07:04,735761.0,0.0,0.0
12:07:04,735898.0,0.0,0.0
12:07:04,735831.0,0.0,0.0
12:07:04,735904.0,0.0,0.0
12:07:04,735828.0,0.0,0.0
12:07:04,735692.0,0.0,0.0
12:07:04,735678.0,0.0,0.0
12:07:04,735496.0,0.0,0.0
12:07:04,735463.0,0.0,0.0
12:07:04,735347.0,0.0,0.0
12:07:04,735211.0,0.0,0.0
12:07:04,735206.0,0.0,0.0
12:07:04,734990.0,0.0,0.0
12:07:04,734964.0,0.0,0.0
12:07:04,734915.0,0.0,0.0
12:07:04,734811.0,0.0,0.0
12:07:04,734843.0,0.0,0.0
12:07:04,734733.0,0.0,0.0
12:07:04,734755.0,0.0,0.0
12:07:04,734716.0,0.0,0.0
12:07:04,734640.0,0.0,0.0
12:07:04,734705.0,0.0,0.0
12:07:04,734636.0,0.0,0.0
12:07:04,734728.0,0.0,0.0
12:07:04,734812.0,0.0,0.0
12:07:04,734886.0,0.0,0.0
12:07:04,735033.0,0.0,0.0
12:07:04,735034.0,0.0,0.0
12:07:04,735216.0,0.0,0.0
12:07:04,735385.0,0.0,0.0
12:07:04,735459.0,0.0,0.0
12:07:04,735713.0,0.0,0.0
12:07:04,735817.0,0.0,0.0
12:07:04,736056.0,0.0,0.0
12:07:04,736198.0,0.0,0.0
12:07:04,736238.0,0.0,0.0
12:07:04,736412.0,0.0,0.0
12:07:04,736448.0,0.0,0.0
12:07:04,736628.0,0.0,0.0
12:07:04,736674.0,0.0,0.0
12:07:04,736639.0,0.0,0.0
12:07:04,736706.0,0.0,0.0
12:07:04,736579.0,0.0,0.0
12:07:04,736578.0,0.0,0.0
12:07:04,736519.0,0.0,0.0
12:07:04,736381.0,0.0,0.0
12:07:04,736337.0,0.0,0.0
12:07:04,736198.0,0.0,0.0
12:07:04,736211.0,0.0,0.0
12:07:04,736226.0,0.0,0.0
12:07:04,736213.0,0.0,0.0
12:07:05,736081.0,0.0,0.0
12:07:05,735807.0,0.0,0.0
12:07:05,735822.0,0.0,0.0
12:07:05,735774.0,0.0,0.0
12:07:05,735737.0,0.0,0.0
12:07:05,735789.0,0.0,0.0
12:07:05,735691.0,0.0,0.0
12:07:05,735828.0,0.0,0.0
12:07:05,735821.0,0.0,0.0
12:07:05,735771.0,0.0,0.0
12:07:05,736016.0,0.0,0.0
12:07:05,736103.0,0.0,0.0
12:07:05,736234.0,0.0,0.0
12:07:05,736189.0,0.0,0.0
12:07:05,736128.0,0.0,0.0
12:07:05,736187.0,0.0,0.0
12:07:05,736091.0,0.0,0.0
12:07:05,736146.0,0.0,0.0
12:07:05,736079.0,0.0,0.0
12:07:05,736061.0,0.0,0.0
12:07:05,736189.0,0.0,0.0
12:07:05,736104.0,0.0,0.0
12:07:05,736188.0,0.0,0.0
12:07:05,736183.0,0.0,0.0
12:07:05,736189.0,0.0,0.0
12:07:05,736293.0,0.0,0.0
12:07:05,736239.0,0.0,0.0
12:07:05,736357.0,0.0,0.0
12:07:05,736350.0,0.0,0.0
12:07:05,736318.0,0.0,0.0
12:07:05,736365.0,0.0,0.0
12:07:05,736209.0,0.0,0.0
12:07:05,736198.0,0.0,0.0
12:07:05,736064.0,0.0,0.0
12:07:05,735894.0,0.0,0.0
12:07:05,735801.0,0.0,0.0
12:07:05,735567.0,0.0,0.0
12:07:05,735505.0,0.0,0.0
12:07:05,735353.0,0.0,0.0
12:07:05,735276.0,0.0,0.0
12:07:05,735416.0,0.0,0.0
12:07:05,735349.0,0.0,0.0
12:07:05,735450.0,0.0,0.0
12:07:05,735445.0,0.0,0.0
12:07:05,735452.0,0.0,0.0
12:07:05,735553.0,0.0,0.0
12:07:05,735458.0,0.0,0.0
12:07:05,735526.0,0.0,0.0
12:07:05,735514.0,0.0,0.0
12:07:05,735509.0,0.0,0.0
12:07:05,735596.0,0.0,0.0
12:07:05,735524.0,0.0,0.0
12:07:05,735604.0,0.0,0.0
12:07:05,735571.0,0.0,0.0
12:07:05,735503.0,0.0,0.0
12:07:05,735538.0,0.0,0.0
12:07:05,735334.0,0.0,0.0
12:07:05,735258.0,0.0,0.0
12:07:05,735105.0,0.0,0.0
12:07:05,734943.0,0.0,0.0
12:07:05,734908.0,0.0,0.0
12:07:05,734759.0,0.0,0.0
12:07:05,734746.0,0.0,0.0
12:07:05,734606.0,0.0,0.0
12:07:05,734510.0,0.0,0.0
12:07:05,734468.0,0.0,0.0
12:07:05,734290.0,0.0,0.0
12:07:05,734258.0,0.0,0.0
12:07:05,734121.0,0.0,0.0
12:07:05,734005.0,0.0,0.0
12:07:05,733980.0,0.0,0.0
12:07:05,733763.0,0.0,0.0
12:07:05,733686.0,0.0,0.0
12:07:05,733649.0,0.0,0.0
12:07:05,733709.0,0.0,0.0
12:07:05,733820.0,0.0,0.0
12:07:05,733706.0,0.0,0.0
12:07:05,733768.0,0.0,0.0
12:07:05,733724.0,0.0,0.0
12:07:05,733680.0,0.0,0.0
12:07:05,733803.0,0.0,0.0
12:07:05,733524.0,0.0,0.0
12:07:05,733383.0,0.0,0.0
12:07:05,733243.0,0.0,0.0
12:07:05,733174.0,0.0,0.0
12:07:05,733142.0,0.0,0.0
12:07:05,733047.0,0.0,0.0
12:07:05,733176.0,0.0,0.0
12:07:05,733171.0,0.0,0.0
12:07:05,733138.0,0.0,0.0
12:07:05,733186.0,0.0,0.0
12:07:05,733099.0,0.0,0.0
12:07:05,733183.0,0.0,0.0
12:07:05,733117.0,0.0,0.0
12:07:05,733044.0,0.0,0.0
12:07:05,733065.0,0.0,0.0
12:07:05,732974.0,0.0,0.0
12:07:05,733138.0,0.0,0.0
12:07:05,733205.0,0.0,0.0
12:07:05,733240.0,0.0,0.0
12:07:05,733319.0,0.0,0.0
12:07:05,733230.0,0.0,0.0
12:07:05,733275.0,0.0,0.0
12:07:05,733223.0,0.0,0.0
12:07:05,733153.0,0.0,0.0
12:07:05,733190.0,0.0,0.0
12:07:05,733071.0,0.0,0.0
12:07:05,733133.0,0.0,0.0
12:07:05,733128.0,0.0,0.0
12:07:05,733131.0,0.0,0.0
12:07:05,733259.0,0.0,0.0
12:07:05,733235.0,0.0,0.0
12:07:05,733377.0,0.0,0.0
12:07:05,733395.0,0.0,0.0
12:07:05,733418.0,0.0,0.0
12:07:05,733570.0,0.0,0.0
12:07:05,733616.0,0.0,0.0
12:07:05,733853.0,0.0,0.0
12:07:05,733964.0,0.0,0.0
12:07:05,734062.0,0.0,0.0
12:07:05,734224.0,0.0,0.0
12:07:05,734170.0,0.0,0.0
12:07:05,734283.0,0.0,0.0
12:07:05,734333.0,0.0,0.0
12:07:05,734413.0,0.0,0.0
12:07:06,734511.0,0.0,0.0
12:07:06,734467.0,0.0,0.0
12:07:06,734561.0,0.0,0.0
12:07:06,734499.0,0.0,0.0
12:07:06,734444.0,0.0,0.0
12:07:06,734473.0,0.0,0.0
12:07:06,734360.0,0.0,0.0
12:07:06,734359.0,0.0,0.0
12:07:06,734149.0,0.0,0.0
12:07:06,733977.0,0.0,0.0
12:07:06,733921.0,0.0,0.0
12:07:06,733686.0,0.0,0.0
12:07:06,733583.0,0.0,0.0
12:07:06,733307.0,0.0,0.0
12:07:06,733089.0,0.0,0.0
12:07:06,732956.0,0.0,0.0
12:07:06,732720.0,0.0,0.0
12:07:06,732684.0,0.0,0.0
12:07:06,732558.0,0.0,0.0
12:07:06,732515.0,0.0,0.0
12:07:06,732528.0,0.0,0.0
12:07:06,732415.0,0.0,0.0
12:07:06,732489.0,0.0,0.0
12:07:06,732476.0,0.0,0.0
12:07:06,732517.0,0.0,0.0
12:07:06,732598.0,0.0,0.0
12:07:06,732471.0,0.0,0.0
12:07:06,732548.0,0.0,0.0
12:07:06,732542.0,0.0,0.0
12:07:06,732599.0,0.0,0.0
12:07:06,732722.0,0.0,0.0
12:07:06,732759.0,0.0,0.0
12:07:06,732993.0,0.0,0.0
12:07:06,733031.0,0.0,0.0
12:07:06,733143.0,0.0,0.0
12:07:06,733304.0,0.0,0.0
12:07:06,733294.0,0.0,0.0
12:07:06,733481.0,0.0,0.0
12:07:06,733471.0,0.0,0.0
12:07:06,733520.0,0.0,0.0
12:07:06,733593.0,0.0,0.0
12:07:06,733601.0,0.0,0.0
12:07:06,733843.0,0.0,0.0
12:07:06,733922.0,0.0,0.0
12:07:06,733884.0,0.0,0.0
12:07:06,733806.0,0.0,0.0
12:07:06,733745.0,0.0,0.0
12:07:06,733851.0,0.0,0.0
12:07:06,733794.0,0.0,0.0
12:07:06,733821.0,0.0,0.0
12:07:06,733938.0,0.0,0.0
12:07:06,733857.0,0.0,0.0
12:07:06,733993.0,0.0,0.0
12:07:06,733985.0,0.0,0.0
12:07:06,733960.0,0.0,0.0
12:07:06,733981.0,0.0,0.0
12:07:06,733854.0,0.0,0.0
12:07:06,733964.0,0.0,0.0
12:07:06,733906.0,0.0,0.0
12:07:06,734026.0,0.0,0.0
12:07:06,734169.0,0.0,0.0
12:07:06,734165.0,0.0,0.0
12:07:06,734400.0,0.0,0.0
12:07:06,734445.0,0.0,0.0
12:07:06,734538.0,0.0,0.0
12:07:06,734638.0,0.0,0.0
12:07:06,734676.0,0.0,0.0
12:07:06,734825.0,0.0,0.0
12:07:06,734747.0,0.0,0.0
12:07:06,734750.0,0.0,0.0
12:07:06,734774.0,0.0,0.0
12:07:06,734665.0,0.0,0.0
12:07:06,734811.0,0.0,0.0
12:07:06,734779.0,0.0,0.0
12:07:06,734771.0,0.0,0.0
12:07:06,734906.0,0.0,0.0
12:07:06,734856.0,0.0,0.0
12:07:06,734956.0,0.0,0.0
12:07:06,734904.0,0.0,0.0
12:07:06,734896.0,0.0,0.0
12:07:06,734968.0,0.0,0.0
12:07:06,734860.0,0.0,0.0
12:07:06,735010.0,0.0,0.0
12:07:06,734978.0,0.0,0.0
12:07:06,734979.0,0.0,0.0
12:07:06,735069.0,0.0,0.0
12:07:06,734968.0,0.0,0.0
12:07:06,735112.0,0.0,0.0
12:07:06,735129.0,0.0,0.0
12:07:06,735183.0,0.0,0.0
12:07:06,735319.0,0.0,0.0
12:07:06,735336.0,0.0,0.0
12:07:06,735519.0,0.0,0.0
12:07:06,735494.0,0.0,0.0
12:07:06,735538.0,0.0,0.0
12:07:06,735661.0,0.0,0.0
12:07:06,735597.0,0.0,0.0
12:07:06,735650.0,0.0,0.0
12:07:06,735569.0,0.0,0.0
12:07:06,735514.0,0.0,0.0
12:07:06,735475.0,0.0,0.0
12:07:06,735311.0,0.0,0.0
12:07:06,735248.0,0.0,0.0
12:07:06,735080.0,0.0,0.0
12:07:06,735038.0,0.0,0.0
12:07:06,735036.0,0.0,0.0
12:07:06,734873.0,0.0,0.0
12:07:06,734914.0,0.0,0.0
12:07:06,734794.0,0.0,0.0
12:07:06,734701.0,0.0,0.0
12:07:06,734688.0,0.0,0.0
12:07:06,734519.0,0.0,0.0
12:07:06,734572.0,0.0,0.0
12:07:06,734477.0,0.0,0.0
12:07:06,734407.0,0.0,0.0
12:07:06,734492.0,0.0,0.0
12:07:06,734350.0,0.0,0.0
12:07:06,734440.0,0.0,0.0
12:07:06,734432.0,0.0,0.0
12:07:06,734456.0,0.0,0.0
12:07:06,734521.0,0.0,0.0
12:07:06,734416.0,0.0,0.0
12:07:06,734475.0,0.0,0.0
12:07:06,734481.0,0.0,0.0
12:07:06,734511.0,0.0,0.0
12:07:07,734597.0,0.0,0.0
12:07:07,734551.0,0.0,0.0
12:07:07,734649.0,0.0,0.0
12:07:07,734563.0,0.0,0.0
12:07:07,734535.0,0.0,0.0
12:07:07,734543.0,0.0,0.0
12:07:07,734368.0,0.0,0.0
12:07:07,734381.0,0.0,0.0
12:07:07,734322.0,0.0,0.0
12:07:07,734311.0,0.0,0.0
12:07:07,734423.0,0.0,0.0
12:07:07,734334.0,0.0,0.0
12:07:07,734156.0,0.0,0.0
12:07:07,733981.0,0.0,0.0
12:07:07,733950.0,0.0,0.0
12:07:07,734023.0,0.0,0.0
12:07:07,734000.0,0.0,0.0
12:07:07,734099.0,0.0,0.0
12:07:07,734055.0,0.0,0.0
12:07:07,734082.0,0.0,0.0
12:07:07,734149.0,0.0,0.0
12:07:07,734064.0,0.0,0.0
12:07:07,734143.0,0.0,0.0
12:07:07,734127.0,0.0,0.0
12:07:07,734161.0,0.0,0.0
12:07:07,734253.0,0.0,0.0
12:07:07,734199.0,0.0,0.0
12:07:07,734333.0,0.0,0.0
12:07:07,734280.0,0.0,0.0
12:07:07,734229.0,0.0,0.0
12:07:07,734265.0,0.0,0.0
12:07:07,734131.0,0.0,0.0
12:07:07,734162.0,0.0,0.0
12:07:07,734028.0,0.0,0.0
12:07:07,733961.0,0.0,0.0
12:07:07,734016.0,0.0,0.0
12:07:07,733890.0,0.0,0.0
12:07:07,734001.0,0.0,0.0
12:07:07,733978.0,0.0,0.0
12:07:07,733936.0,0.0,0.0
12:07:07,733973.0,0.0,0.0
12:07:07,733879.0,0.0,0.0
12:07:07,733942.0,0.0,0.0
12:07:07,733903.0,0.0,0.0
12:07:07,733898.0,0.0,0.0
12:07:07,733956.0,0.0,0.0
12:07:07,733865.0,0.0,0.0
12:07:07,733891.0,0.0,0.0
12:07:07,733818.0,0.0,0.0
12:07:07,733747.0,0.0,0.0
12:07:07,733764.0,0.0,0.0
12:07:07,733623.0,0.0,0.0
12:07:07,733661.0,0.0,0.0
12:07:07,733655.0,0.0,0.0
12:07:07,733730.0,0.0,0.0
12:07:07,733902.0,0.0,0.0
12:07:07,733931.0,0.0,0.0
12:07:07,734175.0,0.0,0.0
12:07:07,734348.0,0.0,0.0
12:07:07,734531.0,0.0,0.0
12:07:07,734791.0,0.0,0.0
12:07:07,734893.0,0.0,0.0
12:07:07,735152.0,0.0,0.0
12:07:07,735249.0,0.0,0.0
12:07:07,735355.0,0.0,0.0
12:07:07,735505.0,0.0,0.0
12:07:07,735561.0,0.0,0.0
12:07:07,735721.0,0.0,0.0
12:07:07,735673.0,0.0,0.0
12:07:07,735663.0,0.0,0.0
12:07:07,735721.0,0.0,0.0
12:07:07,735607.0,0.0,0.0
12:07:07,735668.0,0.0,0.0
12:07:07,735631.0,0.0,0.0
12:07:07,735613.0,0.0,0.0
12:07:07,735602.0,0.0,0.0
12:07:07,735494.0,0.0,0.0
12:07:07,735517.0,0.0,0.0
12:07:07,735394.0,0.0,0.0
12:07:07,735323.0,0.0,0.0
12:07:07,735274.0,0.0,0.0
12:07:07,735136.0,0.0,0.0
12:07:07,735292.0,0.0,0.0
12:07:07,735209.0,0.0,0.0
12:07:07,735050.0,0.0,0.0
12:07:07,735088.0,0.0,0.0
12:07:07,735046.0,0.0,0.0
12:07:07,735132.0,0.0,0.0
12:07:07,735033.0,0.0,0.0
12:07:07,734948.0,0.0,0.0
12:07:07,734913.0,0.0,0.0
12:07:07,734773.0,0.0,0.0
12:07:07,734789.0,0.0,0.0
12:07:07,734646.0,0.0,0.0
12:07:07,734630.0,0.0,0.0
12:07:07,734711.0,0.0,0.0
12:07:07,734669.0,0.0,0.0
12:07:07,734812.0,0.0,0.0
12:07:07,734796.0,0.0,0.0
12:07:07,734899.0,0.0,0.0
12:07:07,734931.0,0.0,0.0
12:07:07,734761.0,0.0,0.0
12:07:07,734819.0,0.0,0.0
12:07:07,734636.0,0.0,0.0
12:07:07,734536.0,0.0,0.0
12:07:07,734519.0,0.0,0.0
12:07:07,734440.0,0.0,0.0
12:07:07,734583.0,0.0,0.0
12:07:07,734529.0,0.0,0.0
12:07:07,734609.0,0.0,0.0
12:07:07,734741.0,0.0,0.0
12:07:07,734676.0,0.0,0.0
12:07:07,734719.0,0.0,0.0
12:07:07,734550.0,0.0,0.0
12:07:07,734559.0,0.0,0.0
12:07:07,734624.0,0.0,0.0
12:07:07,734491.0,0.0,0.0
12:07:07,734593.0,0.0,0.0
12:07:07,734559.0,0.0,0.0
12:07:07,734549.0,0.0,0.0
12:07:07,734528.0,0.0,0.0
12:07:07,734376.0,0.0,0.0
12:07:07,734377.0,0.0,0.0
12:07:07,734159.0,0.0,0.0
12:07:07,734033.0,0.0,0.0
12:07:08,733984.0,0.0,0.0
12:07:08,733796.0,0.0,0.0
12:07:08,733772.0,0.0,0.0
12:07:08,733659.0,0.0,0.0
12:07:08,733616.0,0.0,0.0
12:07:08,733528.0,0.0,0.0
12:07:08,733388.0,0.0,0.0
12:07:08,733436.0,0.0,0.0
12:07:08,733306.0,0.0,0.0
12:07:08,733231.0,0.0,0.0
12:07:08,733222.0,0.0,0.0
12:07:08,733041.0,0.0,0.0
12:07:08,733125.0,0.0,0.0
12:07:08,733063.0,0.0,0.0
12:07:08,733065.0,0.0,0.0
12:07:08,733043.0,0.0,0.0
12:07:08,732895.0,0.0,0.0
12:07:08,732959.0,0.0,0.0
12:07:08,732901.0,0.0,0.0
12:07:08,732921.0,0.0,0.0
12:07:08,732900.0,0.0,0.0
12:07:08,732757.0,0.0,0.0
12:07:08,732831.0,0.0,0.0
12:07:08,732714.0,0.0,0.0
12:07:08,732683.0,0.0,0.0
12:07:08,732734.0,0.0,0.0
12:07:08,732673.0,0.0,0.0
12:07:08,732709.0,0.0,0.0
12:07:08,732601.0,0.0,0.0
12:07:08,732584.0,0.0,0.0
12:07:08,732631.0,0.0,0.0
12:07:08,732631.0,0.0,0.0
12:07:08,732806.0,0.0,0.0
12:07:08,732821.0,0.0,0.0
12:07:08,732924.0,0.0,0.0
12:07:08,733077.0,0.0,0.0
12:07:08,733016.0,0.0,0.0
12:07:08,733139.0,0.0,0.0
12:07:08,733076.0,0.0,0.0
12:07:08,733103.0,0.0,0.0
12:07:08,733117.0,0.0,0.0
12:07:08,733039.0,0.0,0.0
12:07:08,733127.0,0.0,0.0
12:07:08,732936.0,0.0,0.0
12:07:08,732816.0,0.0,0.0
12:07:08,732775.0,0.0,0.0
12:07:08,732621.0,0.0,0.0
12:07:08,732641.0,0.0,0.0
12:07:08,732511.0,0.0,0.0
12:07:08,732487.0,0.0,0.0
12:07:08,732504.0,0.0,0.0
12:07:08,732404.0,0.0,0.0
12:07:08,732443.0,0.0,0.0
12:07:08,732318.0,0.0,0.0
12:07:08,732279.0,0.0,0.0
12:07:08,732324.0,0.0,0.0
12:07:08,732301.0,0.0,0.0
12:07:08,732452.0,0.0,0.0
12:07:08,732436.0,0.0,0.0
12:07:08,732495.0,0.0,0.0
12:07:08,732575.0,0.0,0.0
12:07:08,732590.0,0.0,0.0
12:07:08,732828.0,0.0,0.0
12:07:08,732918.0,0.0,0.0
12:07:08,732964.0,0.0,0.0
12:07:08,733019.0,0.0,0.0
12:07:08,732958.0,0.0,0.0
12:07:08,733104.0,0.0,0.0
12:07:08,733161.0,0.0,0.0
12:07:08,733391.0,0.0,0.0
12:07:08,733415.0,0.0,0.0
12:07:08,733214.0,0.0,0.0
12:07:08,733276.0,0.0,0.0
12:07:08,733184.0,0.0,0.0
12:07:08,733174.0,0.0,0.0
12:07:08,733249.0,0.0,0.0
12:07:08,733099.0,0.0,0.0
12:07:08,733126.0,0.0,0.0
12:07:08,732998.0,0.0,0.0
12:07:08,732861.0,0.0,0.0
12:07:08,732749.0,0.0,0.0
12:07:08,732544.0,0.0,0.0
12:07:08,732561.0,0.0,0.0
12:07:08,732434.0,0.0,0.0
12:07:08,732231.0,0.0,0.0
12:07:08,732160.0,0.0,0.0
12:07:08,732008.0,0.0,0.0
12:07:08,732036.0,0.0,0.0
12:07:08,731922.0,0.0,0.0
12:07:08,731897.0,0.0,0.0
12:07:08,731898.0,0.0,0.0
12:07:08,731819.0,0.0,0.0
12:07:08,731886.0,0.0,0.0
12:07:08,731871.0,0.0,0.0
12:07:08,731985.0,0.0,0.0
12:07:08,732163.0,0.0,0.0
12:07:08,732223.0,0.0,0.0
12:07:08,732473.0,0.0,0.0
12:07:08,732574.0,0.0,0.0
12:07:08,732644.0,0.0,0.0
12:07:08,732809.0,0.0,0.0
12:07:08,732865.0,0.0,0.0
12:07:08,732956.0,0.0,0.0
12:07:08,732918.0,0.0,0.0
12:07:08,733013.0,0.0,0.0
12:07:08,733153.0,0.0,0.0
12:07:08,733074.0,0.0,0.0
12:07:08,733105.0,0.0,0.0
12:07:08,733050.0,0.0,0.0
12:07:08,733021.0,0.0,0.0
12:07:08,733069.0,0.0,0.0
12:07:08,732981.0,0.0,0.0
12:07:08,733027.0,0.0,0.0
12:07:08,733038.0,0.0,0.0
12:07:08,733278.0,0.0,0.0
12:07:08,733531.0,0.0,0.0
12:07:08,733589.0,0.0,0.0
12:07:08,733651.0,0.0,0.0
12:07:08,733553.0,0.0,0.0
12:07:08,733598.0,0.0,0.0
12:07:08,733606.0,0.0,0.0
12:07:08,733505.0,0.0,0.0
12:07:08,733692.0,0.0,0.0
12:07:08,733572.0,0.0,0.0
12:07:08,733528.0,0.0,0.0
12:07:09,733547.0,0.0,0.0
12:07:09,733410.0,0.0,0.0
12:07:09,733484.0,0.0,0.0
12:07:09,733326.0,0.0,0.0
12:07:09,733319.0,0.0,0.0
12:07:09,733418.0,0.0,0.0
12:07:09,733234.0,0.0,0.0
12:07:09,733287.0,0.0,0.0
12:07:09,733153.0,0.0,0.0
12:07:09,733121.0,0.0,0.0
12:07:09,733144.0,0.0,0.0
12:07:09,733202.0,0.0,0.0
12:07:09,733382.0,0.0,0.0
12:07:09,733228.0,0.0,0.0
12:07:09,733248.0,0.0,0.0
12:07:09,733403.0,0.0,0.0
12:07:09,733369.0,0.0,0.0
12:07:09,733565.0,0.0,0.0
12:07:09,733557.0,0.0,0.0
12:07:09,733699.0,0.0,0.0
12:07:09,733901.0,0.0,0.0
12:07:09,733909.0,0.0,0.0
12:07:09,734054.0,0.0,0.0
12:07:09,733996.0,0.0,0.0
12:07:09,734089.0,0.0,0.0
12:07:09,734174.0,0.0,0.0
12:07:09,734169.0,0.0,0.0
12:07:09,734379.0,0.0,0.0
12:07:09,734383.0,0.0,0.0
12:07:09,734460.0,0.0,0.0
12:07:09,734594.0,0.0,0.0
12:07:09,734531.0,0.0,0.0
12:07:09,734593.0,0.0,0.0
12:07:09,734466.0,0.0,0.0
12:07:09,734415.0,0.0,0.0
12:07:09,734494.0,0.0,0.0
12:07:09,734400.0,0.0,0.0
12:07:09,734631.0,0.0,0.0
12:07:09,734629.0,0.0,0.0
12:07:09,734356.0,0.0,0.0
12:07:09,734236.0,0.0,0.0
12:07:09,734098.0,0.0,0.0
12:07:09,734150.0,0.0,0.0
12:07:09,734029.0,0.0,0.0
12:07:09,733906.0,0.0,0.0
12:07:09,733791.0,0.0,0.0
12:07:09,733674.0,0.0,0.0
12:07:09,733693.0,0.0,0.0
12:07:09,733543.0,0.0,0.0
12:07:09,733474.0,0.0,0.0
12:07:09,733444.0,0.0,0.0
12:07:09,733264.0,0.0,0.0
12:07:09,733263.0,0.0,0.0
12:07:09,733148.0,0.0,0.0
12:07:09,733134.0,0.0,0.0
12:07:09,733118.0,0.0,0.0
12:07:09,732990.0,0.0,0.0
12:07:09,733098.0,0.0,0.0
12:07:09,733008.0,0.0,0.0
12:07:09,733056.0,0.0,0.0
12:07:09,733139.0,0.0,0.0
12:07:09,733078.0,0.0,0.0
12:07:09,733193.0,0.0,0.0
12:07:09,733171.0,0.0,0.0
12:07:09,733216.0,0.0,0.0
12:07:09,733256.0,0.0,0.0
12:07:09,733151.0,0.0,0.0
12:07:09,733426.0,0.0,0.0
12:07:09,733506.0,0.0,0.0
12:07:09,733674.0,0.0,0.0
12:07:09,733751.0,0.0,0.0
12:07:09,733773.0,0.0,0.0
12:07:09,733930.0,0.0,0.0
12:07:09,733900.0,0.0,0.0
12:07:09,733956.0,0.0,0.0
12:07:09,733955.0,0.0,0.0
12:07:09,733865.0,0.0,0.0
12:07:09,733934.0,0.0,0.0
12:07:09,733848.0,0.0,0.0
12:07:09,733789.0,0.0,0.0
12:07:09,733773.0,0.0,0.0
12:07:09,733590.0,0.0,0.0
12:07:09,733437.0,0.0,0.0
12:07:09,733262.0,0.0,0.0
12:07:09,733239.0,0.0,0.0
12:07:09,733255.0,0.0,0.0
12:07:09,733145.0,0.0,0.0
12:07:09,733186.0,0.0,0.0
12:07:09,733110.0,0.0,0.0
12:07:09,733108.0,0.0,0.0
12:07:09,733104.0,0.0,0.0
12:07:09,733027.0,0.0,0.0
12:07:09,733087.0,0.0,0.0
12:07:09,732997.0,0.0,0.0
12:07:09,733038.0,0.0,0.0
12:07:09,733053.0,0.0,0.0
12:07:09,732991.0,0.0,0.0
12:07:09,733098.0,0.0,0.0
12:07:09,733016.0,0.0,0.0
12:07:09,733046.0,0.0,0.0
12:07:09,733123.0,0.0,0.0
12:07:09,733087.0,0.0,0.0
12:07:09,733219.0,0.0,0.0
12:07:09,733223.0,0.0,0.0
12:07:09,733359.0,0.0,0.0
12:07:09,733530.0,0.0,0.0
12:07:09,733516.0,0.0,0.0
12:07:09,733646.0,0.0,0.0
12:07:09,733639.0,0.0,0.0
12:07:09,733721.0,0.0,0.0
12:07:09,733809.0,0.0,0.0
12:07:09,733799.0,0.0,0.0
12:07:09,733902.0,0.0,0.0
12:07:09,733852.0,0.0,0.0
12:07:09,733896.0,0.0,0.0
12:07:09,733921.0,0.0,0.0
12:07:09,733854.0,0.0,0.0
12:07:09,733914.0,0.0,0.0
12:07:09,733800.0,0.0,0.0
12:07:09,733780.0,0.0,0.0
12:07:09,733652.0,0.0,0.0
12:07:09,733448.0,0.0,0.0
12:07:09,733485.0,0.0,0.0
12:07:09,733382.0,0.0,0.0
12:07:09,733414.0,0.0,0.0
12:07:10,733479.0,0.0,0.0
12:07:10,733191.0,0.0,0.0
12:07:10,733113.0,0.0,0.0
12:07:10,732966.0,0.0,0.0
12:07:10,732933.0,0.0,0.0
12:07:10,732923.0,0.0,0.0
12:07:10,732872.0,0.0,0.0
12:07:10,732957.0,0.0,0.0
12:07:10,732904.0,0.0,0.0
12:07:10,732956.0,0.0,0.0
12:07:10,733015.0,0.0,0.0
12:07:10,732943.0,0.0,0.0
12:07:10,732982.0,0.0,0.0
12:07:10,732983.0,0.0,0.0
12:07:10,733071.0,0.0,0.0
12:07:10,733131.0,0.0,0.0
12:07:10,733121.0,0.0,0.0
12:07:10,733272.0,0.0,0.0
12:07:10,733259.0,0.0,0.0
12:07:10,733379.0,0.0,0.0
12:07:10,733481.0,0.0,0.0
12:07:10,733453.0,0.0,0.0
12:07:10,733593.0,0.0,0.0
12:07:10,733575.0,0.0,0.0
12:07:10,733601.0,0.0,0.0
12:07:10,733601.0,0.0,0.0
12:07:10,733571.0,0.0,0.0
12:07:10,733679.0,0.0,0.0
12:07:10,733667.0,0.0,0.0
12:07:10,733738.0,0.0,0.0
12:07:10,733838.0,0.0,0.0
12:07:10,733876.0,0.0,0.0
12:07:10,734055.0,0.0,0.0
12:07:10,734034.0,0.0,0.0
12:07:10,734139.0,0.0,0.0
12:07:10,734294.0,0.0,0.0
12:07:10,734284.0,0.0,0.0
12:07:10,734416.0,0.0,0.0
12:07:10,734406.0,0.0,0.0
12:07:10,734482.0,0.0,0.0
12:07:10,734509.0,0.0,0.0
12:07:10,734464.0,0.0,0.0
12:07:10,734564.0,0.0,0.0
12:07:10,734478.0,0.0,0.0
12:07:10,734516.0,0.0,0.0
12:07:10,734526.0,0.0,0.0
12:07:10,734427.0,0.0,0.0
12:07:10,734491.0,0.0,0.0
12:07:10,734432.0,0.0,0.0
12:07:10,734422.0,0.0,0.0
12:07:10,734337.0,0.0,0.0
12:07:10,734260.0,0.0,0.0
12:07:10,734309.0,0.0,0.0
12:07:10,734195.0,0.0,0.0
12:07:10,734236.0,0.0,0.0
12:07:10,734223.0,0.0,0.0
12:07:10,734118.0,0.0,0.0
12:07:10,734149.0,0.0,0.0
12:07:10,734064.0,0.0,0.0
12:07:10,734088.0,0.0,0.0
12:07:10,734050.0,0.0,0.0
12:07:10,733969.0,0.0,0.0
12:07:10,734017.0,0.0,0.0
12:07:10,733926.0,0.0,0.0
12:07:10,733996.0,0.0,0.0
12:07:10,734003.0,0.0,0.0
12:07:10,733949.0,0.0,0.0
12:07:10,734063.0,0.0,0.0
12:07:10,734001.0,0.0,0.0
12:07:10,734028.0,0.0,0.0
12:07:10,734041.0,0.0,0.0
12:07:10,733976.0,0.0,0.0
12:07:10,733965.0,0.0,0.0
12:07:10,733806.0,0.0,0.0
12:07:10,733791.0,0.0,0.0
12:07:10,733769.0,0.0,0.0
12:07:10,733598.0,0.0,0.0
12:07:10,733517.0,0.0,0.0
12:07:10,733224.0,0.0,0.0
12:07:10,733130.0,0.0,0.0
12:07:10,733136.0,0.0,0.0
12:07:10,733054.0,0.0,0.0
12:07:10,733191.0,0.0,0.0
12:07:10,733013.0,0.0,0.0
12:07:10,732878.0,0.0,0.0
12:07:10,732857.0,0.0,0.0
12:07:10,732743.0,0.0,0.0
12:07:10,732774.0,0.0,0.0
12:07:10,732678.0,0.0,0.0
12:07:10,732711.0,0.0,0.0
12:07:10,732731.0,0.0,0.0
12:07:10,732635.0,0.0,0.0
12:07:10,732579.0,0.0,0.0
12:07:10,732381.0,0.0,0.0
12:07:10,732306.0,0.0,0.0
12:07:10,732214.0,0.0,0.0
12:07:10,732139.0,0.0,0.0
12:07:10,732170.0,0.0,0.0
12:07:10,731981.0,0.0,0.0
12:07:10,731953.0,0.0,0.0
12:07:10,731896.0,0.0,0.0
12:07:10,731823.0,0.0,0.0
12:07:10,731941.0,0.0,0.0
12:07:10,731876.0,0.0,0.0
12:07:10,731866.0,0.0,0.0
12:07:10,731855.0,0.0,0.0
12:07:10,731839.0,0.0,0.0
12:07:10,731936.0,0.0,0.0
12:07:10,731898.0,0.0,0.0
12:07:10,731999.0,0.0,0.0
12:07:10,732046.0,0.0,0.0
12:07:10,732041.0,0.0,0.0
12:07:10,732138.0,0.0,0.0
12:07:10,732056.0,0.0,0.0
12:07:10,732048.0,0.0,0.0
12:07:10,731988.0,0.0,0.0
12:07:10,731871.0,0.0,0.0
12:07:10,731973.0,0.0,0.0
12:07:10,731920.0,0.0,0.0
12:07:10,731968.0,0.0,0.0
12:07:10,731973.0,0.0,0.0
12:07:10,731845.0,0.0,0.0
12:07:10,731808.0,0.0,0.0
12:07:10,731628.0,0.0,0.0
12:07:10,731604.0,0.0,0.0
12:07:11,731504.0,0.0,0.0
12:07:11,731359.0,0.0,0.0
12:07:11,731375.0,0.0,0.0
12:07:11,731258.0,0.0,0.0
12:07:11,731293.0,0.0,0.0
12:07:11,731296.0,0.0,0.0
12:07:11,731289.0,0.0,0.0
12:07:11,731396.0,0.0,0.0
12:07:11,731382.0,0.0,0.0
12:07:11,731503.0,0.0,0.0
12:07:11,731578.0,0.0,0.0
12:07:11,731589.0,0.0,0.0
12:07:11,731773.0,0.0,0.0
12:07:11,731780.0,0.0,0.0
12:07:11,731884.0,0.0,0.0
12:07:11,731961.0,0.0,0.0
12:07:11,731929.0,0.0,0.0
12:07:11,732053.0,0.0,0.0
12:07:11,731988.0,0.0,0.0
12:07:11,732039.0,0.0,0.0
12:07:11,732041.0,0.0,0.0
12:07:11,731994.0,0.0,0.0
12:07:11,732079.0,0.0,0.0
12:07:11,732016.0,0.0,0.0
12:07:11,732054.0,0.0,0.0
12:07:11,732067.0,0.0,0.0
12:07:11,732027.0,0.0,0.0
12:07:11,732171.0,0.0,0.0
12:07:11,732084.0,0.0,0.0
12:07:11,732116.0,0.0,0.0
12:07:11,732093.0,0.0,0.0
12:07:11,731999.0,0.0,0.0
12:07:11,732028.0,0.0,0.0
12:07:11,731887.0,0.0,0.0
12:07:11,731861.0,0.0,0.0
12:07:11,731838.0,0.0,0.0
12:07:11,731739.0,0.0,0.0
12:07:11,731768.0,0.0,0.0
12:07:11,731586.0,0.0,0.0
12:07:11,731537.0,0.0,0.0
12:07:11,731455.0,0.0,0.0
12:07:11,731349.0,0.0,0.0
12:07:11,731383.0,0.0,0.0
12:07:11,731348.0,0.0,0.0
12:07:11,731455.0,0.0,0.0
12:07:11,731324.0,0.0,0.0
12:07:11,731131.0,0.0,0.0
12:07:11,731186.0,0.0,0.0
12:07:11,731149.0,0.0,0.0
12:07:11,731205.0,0.0,0.0
12:07:11,731204.0,0.0,0.0
12:07:11,731177.0,0.0,0.0
12:07:11,731279.0,0.0,0.0
12:07:11,731228.0,0.0,0.0
12:07:11,731329.0,0.0,0.0
12:07:11,731403.0,0.0,0.0
12:07:11,731429.0,0.0,0.0
12:07:11,731596.0,0.0,0.0
12:07:11,731638.0,0.0,0.0
12:07:11,731821.0,0.0,0.0
12:07:11,731909.0,0.0,0.0
12:07:11,731939.0,0.0,0.0
12:07:11,732134.0,0.0,0.0
12:07:11,732136.0,0.0,0.0
12:07:11,732250.0,0.0,0.0
12:07:11,732239.0,0.0,0.0
12:07:11,732171.0,0.0,0.0
12:07:11,732231.0,0.0,0.0
12:07:11,732108.0,0.0,0.0
12:07:11,732155.0,0.0,0.0
12:07:11,732160.0,0.0,0.0
12:07:11,732154.0,0.0,0.0
12:07:11,732309.0,0.0,0.0
12:07:11,732314.0,0.0,0.0
12:07:11,732481.0,0.0,0.0
12:07:11,732531.0,0.0,0.0
12:07:11,732587.0,0.0,0.0
12:07:11,732761.0,0.0,0.0
12:07:11,732725.0,0.0,0.0
12:07:11,732832.0,0.0,0.0
12:07:11,732900.0,0.0,0.0
12:07:11,732953.0,0.0,0.0
12:07:11,733099.0,0.0,0.0
12:07:11,733068.0,0.0,0.0
12:07:11,733164.0,0.0,0.0
12:07:11,733148.0,0.0,0.0
12:07:11,733074.0,0.0,0.0
12:07:11,733182.0,0.0,0.0
12:07:11,733061.0,0.0,0.0
12:07:11,733013.0,0.0,0.0
12:07:11,733013.0,0.0,0.0
12:07:11,732963.0,0.0,0.0
12:07:11,733053.0,0.0,0.0
12:07:11,732931.0,0.0,0.0
12:07:11,733001.0,0.0,0.0
12:07:11,732999.0,0.0,0.0
12:07:11,732970.0,0.0,0.0
12:07:11,733096.0,0.0,0.0
12:07:11,733006.0,0.0,0.0
12:07:11,733065.0,0.0,0.0
12:07:11,733082.0,0.0,0.0
12:07:11,733013.0,0.0,0.0
12:07:11,733151.0,0.0,0.0
12:07:11,733121.0,0.0,0.0
12:07:11,733239.0,0.0,0.0
12:07:11,733273.0,0.0,0.0
12:07:11,733303.0,0.0,0.0
12:07:11,733466.0,0.0,0.0
12:07:11,733461.0,0.0,0.0
12:07:11,733638.0,0.0,0.0
12:07:11,733751.0,0.0,0.0
12:07:11,733802.0,0.0,0.0
12:07:11,734027.0,0.0,0.0
12:07:11,734034.0,0.0,0.0
12:07:11,734186.0,0.0,0.0
12:07:11,734253.0,0.0,0.0
12:07:11,734223.0,0.0,0.0
12:07:11,734292.0,0.0,0.0
12:07:11,734170.0,0.0,0.0
12:07:11,734221.0,0.0,0.0
12:07:11,734198.0,0.0,0.0
12:07:11,734087.0,0.0,0.0
12:07:11,734119.0,0.0,0.0
12:07:11,733998.0,0.0,0.0
12:07:11,733991.0,0.0,0.0
12:07:12,733944.0,0.0,0.0
12:07:12,733779.0,0.0,0.0
12:07:12,733770.0,0.0,0.0
12:07:12,733599.0,0.0,0.0
12:07:12,733573.0,0.0,0.0
12:07:12,733615.0,0.0,0.0
12:07:12,733603.0,0.0,0.0
12:07:12,733534.0,0.0,0.0
12:07:12,733327.0,0.0,0.0
12:07:12,733303.0,0.0,0.0
12:07:12,733263.0,0.0,0.0
12:07:12,733193.0,0.0,0.0
12:07:12,733321.0,0.0,0.0
12:07:12,733241.0,0.0,0.0
12:07:12,733241.0,0.0,0.0
12:07:12,733163.0,0.0,0.0
12:07:12,733032.0,0.0,0.0
12:07:12,732983.0,0.0,0.0
12:07:12,733004.0,0.0,0.0
12:07:12,733209.0,0.0,0.0
12:07:12,733279.0,0.0,0.0
12:07:12,733293.0,0.0,0.0
12:07:12,733429.0,0.0,0.0
12:07:12,733382.0,0.0,0.0
12:07:12,733490.0,0.0,0.0
12:07:12,733536.0,0.0,0.0
12:07:12,733553.0,0.0,0.0
12:07:12,733688.0,0.0,0.0
12:07:12,733635.0,0.0,0.0
12:07:12,733695.0,0.0,0.0
12:07:12,733692.0,0.0,0.0
12:07:12,733656.0,0.0,0.0
12:07:12,733756.0,0.0,0.0
12:07:12,733629.0,0.0,0.0
12:07:12,733659.0,0.0,0.0
12:07:12,733598.0,0.0,0.0
12:07:12,733494.0,0.0,0.0
12:07:12,733554.0,0.0,0.0
12:07:12,733369.0,0.0,0.0
12:07:12,733324.0,0.0,0.0
12:07:12,733178.0,0.0,0.0
12:07:12,733061.0,0.0,0.0
12:07:12,733117.0,0.0,0.0
12:07:12,733018.0,0.0,0.0
12:07:12,733033.0,0.0,0.0
12:07:12,732990.0,0.0,0.0
12:07:12,732862.0,0.0,0.0
12:07:12,732933.0,0.0,0.0
12:07:12,732906.0,0.0,0.0
12:07:12,732976.0,0.0,0.0
12:07:12,732959.0,0.0,0.0
12:07:12,732860.0,0.0,0.0
12:07:12,732953.0,0.0,0.0
12:07:12,732882.0,0.0,0.0
12:07:12,733008.0,0.0,0.0
12:07:12,733145.0,0.0,0.0
12:07:12,733224.0,0.0,0.0
12:07:12,733384.0,0.0,0.0
12:07:12,733455.0,0.0,0.0
12:07:12,733584.0,0.0,0.0
12:07:12,733509.0,0.0,0.0
12:07:12,733485.0,0.0,0.0
12:07:12,733550.0,0.0,0.0
12:07:12,733462.0,0.0,0.0
12:07:12,733513.0,0.0,0.0
12:07:12,733561.0,0.0,0.0
12:07:12,733511.0,0.0,0.0
12:07:12,733588.0,0.0,0.0
12:07:12,733498.0,0.0,0.0
12:07:12,733510.0,0.0,0.0
12:07:12,733393.0,0.0,0.0
12:07:12,733249.0,0.0,0.0
12:07:12,733236.0,0.0,0.0
12:07:12,733076.0,0.0,0.0
12:07:12,733122.0,0.0,0.0
12:07:12,733153.0,0.0,0.0
12:07:12,733090.0,0.0,0.0
12:07:12,733100.0,0.0,0.0
12:07:12,732969.0,0.0,0.0
12:07:12,733048.0,0.0,0.0
12:07:12,733089.0,0.0,0.0
12:07:12,733016.0,0.0,0.0
12:07:12,733030.0,0.0,0.0
12:07:12,732873.0,0.0,0.0
12:07:12,732851.0,0.0,0.0
12:07:12,732801.0,0.0,0.0
12:07:12,732681.0,0.0,0.0
12:07:12,732631.0,0.0,0.0
12:07:12,732484.0,0.0,0.0
12:07:12,732596.0,0.0,0.0
12:07:12,732709.0,0.0,0.0
12:07:12,732809.0,0.0,0.0
12:07:12,733036.0,0.0,0.0
12:07:12,732920.0,0.0,0.0
12:07:12,732948.0,0.0,0.0
12:07:12,732959.0,0.0,0.0
12:07:12,732957.0,0.0,0.0
12:07:12,733101.0,0.0,0.0
12:07:12,733047.0,0.0,0.0
12:07:12,733165.0,0.0,0.0
12:07:12,733193.0,0.0,0.0
12:07:12,733213.0,0.0,0.0
12:07:12,733359.0,0.0,0.0
12:07:12,733333.0,0.0,0.0
12:07:12,733478.0,0.0,0.0
12:07:12,733523.0,0.0,0.0
12:07:12,733448.0,0.0,0.0
12:07:12,733497.0,0.0,0.0
12:07:12,733464.0,0.0,0.0
12:07:12,733603.0,0.0,0.0
12:07:12,733622.0,0.0,0.0
12:07:12,733619.0,0.0,0.0
12:07:12,733796.0,0.0,0.0
12:07:12,733760.0,0.0,0.0
12:07:12,733793.0,0.0,0.0
12:07:12,733662.0,0.0,0.0
12:07:12,733469.0,0.0,0.0
12:07:12,733395.0,0.0,0.0
12:07:12,733173.0,0.0,0.0
12:07:12,733119.0,0.0,0.0
12:07:12,733005.0,0.0,0.0
12:07:12,732897.0,0.0,0.0
12:07:12,732949.0,0.0,0.0
12:07:12,732824.0,0.0,0.0
12:07:12,732858.0,0.0,0.0
12:07:13,732809.0,0.0,0.0
12:07:13,732701.0,0.0,0.0
12:07:13,732659.0,0.0,0.0
12:07:13,732415.0,0.0,0.0
12:07:13,732336.0,0.0,0.0
12:07:13,732191.0,0.0,0.0
12:07:13,732026.0,0.0,0.0
12:07:13,732004.0,0.0,0.0
12:07:13,731830.0,0.0,0.0
12:07:13,731901.0,0.0,0.0
12:07:13,731852.0,0.0,0.0
12:07:13,731728.0,0.0,0.0
12:07:13,731637.0,0.0,0.0
12:07:13,731368.0,0.0,0.0
12:07:13,731289.0,0.0,0.0
12:07:13,731201.0,0.0,0.0
12:07:13,731183.0,0.0,0.0
12:07:13,731321.0,0.0,0.0
12:07:13,731251.0,0.0,0.0
12:07:13,731346.0,0.0,0.0
12:07:13,731374.0,0.0,0.0
12:07:13,731304.0,0.0,0.0
12:07:13,731380.0,0.0,0.0
12:07:13,731303.0,0.0,0.0
12:07:13,731396.0,0.0,0.0
12:07:13,731351.0,0.0,0.0
12:07:13,731354.0,0.0,0.0
12:07:13,731484.0,0.0,0.0
12:07:13,731349.0,0.0,0.0
12:07:13,731338.0,0.0,0.0
12:07:13,731243.0,0.0,0.0
12:07:13,731089.0,0.0,0.0
12:07:13,731126.0,0.0,0.0
12:07:13,731083.0,0.0,0.0
12:07:13,731169.0,0.0,0.0
12:07:13,731121.0,0.0,0.0
12:07:13,731058.0,0.0,0.0
12:07:13,731196.0,0.0,0.0
12:07:13,731143.0,0.0,0.0
12:07:13,731209.0,0.0,0.0
12:07:13,731185.0,0.0,0.0
12:07:13,731193.0,0.0,0.0
12:07:13,731309.0,0.0,0.0
12:07:13,731246.0,0.0,0.0
12:07:13,731382.0,0.0,0.0
12:07:13,731424.0,0.0,0.0
12:07:13,731409.0,0.0,0.0
12:07:13,731527.0,0.0,0.0
12:07:13,731482.0,0.0,0.0
12:07:13,731592.0,0.0,0.0
12:07:13,731596.0,0.0,0.0
12:07:13,731566.0,0.0,0.0
12:07:13,731599.0,0.0,0.0
12:07:13,731525.0,0.0,0.0
12:07:13,731642.0,0.0,0.0
12:07:13,731660.0,0.0,0.0
12:07:13,731638.0,0.0,0.0
12:07:13,731765.0,0.0,0.0
12:07:13,731634.0,0.0,0.0
12:07:13,731548.0,0.0,0.0
12:07:13,731517.0,0.0,0.0
12:07:13,731609.0,0.0,0.0
12:07:13,731821.0,0.0,0.0
12:07:13,731852.0,0.0,0.0
12:07:13,731971.0,0.0,0.0
12:07:13,731967.0,0.0,0.0
12:07:13,731926.0,0.0,0.0
12:07:13,732034.0,0.0,0.0
12:07:13,731996.0,0.0,0.0
12:07:13,732048.0,0.0,0.0
12:07:13,731923.0,0.0,0.0
12:07:13,731737.0,0.0,0.0
12:07:13,731718.0,0.0,0.0
12:07:13,731543.0,0.0,0.0
12:07:13,731545.0,0.0,0.0
12:07:13,731431.0,0.0,0.0
12:07:13,731319.0,0.0,0.0
12:07:13,731404.0,0.0,0.0
12:07:13,731293.0,0.0,0.0
12:07:13,731371.0,0.0,0.0
12:07:13,731349.0,0.0,0.0
12:07:13,731331.0,0.0,0.0
12:07:13,731444.0,0.0,0.0
12:07:13,731377.0,0.0,0.0
12:07:13,731435.0,0.0,0.0
12:07:13,731400.0,0.0,0.0
12:07:13,731344.0,0.0,0.0
12:07:13,731373.0,0.0,0.0
12:07:13,731301.0,0.0,0.0
12:07:13,731403.0,0.0,0.0
12:07:13,731415.0,0.0,0.0
12:07:13,731395.0,0.0,0.0
12:07:13,731486.0,0.0,0.0
12:07:13,731374.0,0.0,0.0
12:07:13,731429.0,0.0,0.0
12:07:13,731450.0,0.0,0.0
12:07:13,731463.0,0.0,0.0
12:07:13,731586.0,0.0,0.0
12:07:13,731659.0,0.0,0.0
12:07:13,731835.0,0.0,0.0
12:07:13,731913.0,0.0,0.0
12:07:13,731948.0,0.0,0.0
12:07:13,732109.0,0.0,0.0
12:07:13,732116.0,0.0,0.0
12:07:13,732327.0,0.0,0.0
12:07:13,732428.0,0.0,0.0
12:07:13,732477.0,0.0,0.0
12:07:13,732562.0,0.0,0.0
12:07:13,732453.0,0.0,0.0
12:07:13,732488.0,0.0,0.0
12:07:13,732457.0,0.0,0.0
12:07:13,732424.0,0.0,0.0
12:07:13,732510.0,0.0,0.0
12:07:13,732419.0,0.0,0.0
12:07:13,732521.0,0.0,0.0
12:07:13,732554.0,0.0,0.0
12:07:13,732500.0,0.0,0.0
12:07:13,732542.0,0.0,0.0
12:07:13,732527.0,0.0,0.0
12:07:13,732685.0,0.0,0.0
12:07:13,732734.0,0.0,0.0
12:07:13,732763.0,0.0,0.0
12:07:13,732964.0,0.0,0.0
12:07:13,732918.0,0.0,0.0
12:07:13,732927.0,0.0,0.0
12:07:14,732855.0,0.0,0.0
12:07:14,732779.0,0.0,0.0
12:07:14,732848.0,0.0,0.0
12:07:14,732821.0,0.0,0.0
12:07:14,732874.0,0.0,0.0
12:07:14,732819.0,0.0,0.0
12:07:14,732762.0,0.0,0.0
12:07:14,732775.0,0.0,0.0
12:07:14,732719.0,0.0,0.0
12:07:14,732844.0,0.0,0.0
12:07:14,732816.0,0.0,0.0
12:07:14,732823.0,0.0,0.0
12:07:14,733044.0,0.0,0.0
12:07:14,733076.0,0.0,0.0
12:07:14,733206.0,0.0,0.0
12:07:14,733193.0,0.0,0.0
12:07:14,733131.0,0.0,0.0
12:07:14,733109.0,0.0,0.0
12:07:14,732928.0,0.0,0.0
12:07:14,733002.0,0.0,0.0
12:07:14,732998.0,0.0,0.0
12:07:14,733038.0,0.0,0.0
12:07:14,733231.0,0.0,0.0
12:07:14,733091.0,0.0,0.0
12:07:14,733073.0,0.0,0.0
12:07:14,733034.0,0.0,0.0
12:07:14,733036.0,0.0,0.0
12:07:14,733141.0,0.0,0.0
12:07:14,733028.0,0.0,0.0
12:07:14,733136.0,0.0,0.0
12:07:14,733132.0,0.0,0.0
12:07:14,733164.0,0.0,0.0
12:07:14,733275.0,0.0,0.0
12:07:14,733198.0,0.0,0.0
12:07:14,733311.0,0.0,0.0
12:07:14,733246.0,0.0,0.0
12:07:14,733216.0,0.0,0.0
12:07:14,733326.0,0.0,0.0
12:07:14,733324.0,0.0,0.0
12:07:14,733454.0,0.0,0.0
12:07:14,733422.0,0.0,0.0
12:07:14,733401.0,0.0,0.0
12:07:14,733461.0,0.0,0.0
12:07:14,733375.0,0.0,0.0
12:07:14,733501.0,0.0,0.0
12:07:14,733494.0,0.0,0.0
12:07:14,733418.0,0.0,0.0
12:07:14,733434.0,0.0,0.0
12:07:14,733415.0,0.0,0.0
12:07:14,733575.0,0.0,0.0
12:07:14,733531.0,0.0,0.0
12:07:14,733521.0,0.0,0.0
12:07:14,733594.0,0.0,0.0
12:07:14,733513.0,0.0,0.0
12:07:14,733605.0,0.0,0.0
12:07:14,733532.0,0.0,0.0
12:07:14,733451.0,0.0,0.0
12:07:14,733463.0,0.0,0.0
12:07:14,733346.0,0.0,0.0
12:07:14,733348.0,0.0,0.0
12:07:14,733292.0,0.0,0.0
12:07:14,733202.0,0.0,0.0
12:07:14,733288.0,0.0,0.0
12:07:14,733180.0,0.0,0.0
12:07:14,733237.0,0.0,0.0
12:07:14,733233.0,0.0,0.0
12:07:14,733193.0,0.0,0.0
12:07:14,733188.0,0.0,0.0
12:07:14,733081.0,0.0,0.0
12:07:14,733096.0,0.0,0.0
12:07:14,733059.0,0.0,0.0
12:07:14,733003.0,0.0,0.0
12:07:14,733039.0,0.0,0.0
12:07:14,732989.0,0.0,0.0
12:07:14,733101.0,0.0,0.0
12:07:14,733094.0,0.0,0.0
12:07:14,733092.0,0.0,0.0
12:07:14,733240.0,0.0,0.0
12:07:14,733248.0,0.0,0.0
12:07:14,733247.0,0.0,0.0
12:07:14,733242.0,0.0,0.0
12:07:14,733303.0,0.0,0.0
12:07:14,733405.0,0.0,0.0
12:07:14,733283.0,0.0,0.0
12:07:14,733322.0,0.0,0.0
12:07:14,733281.0,0.0,0.0
12:07:14,733333.0,0.0,0.0
12:07:14,733417.0,0.0,0.0
12:07:14,733328.0,0.0,0.0
12:07:14,733378.0,0.0,0.0
12:07:14,733342.0,0.0,0.0
12:07:14,733280.0,0.0,0.0
12:07:14,733342.0,0.0,0.0
12:07:14,733284.0,0.0,0.0
12:07:14,733396.0,0.0,0.0
12:07:14,733323.0,0.0,0.0
12:07:14,733243.0,0.0,0.0
12:07:14,733296.0,0.0,0.0
12:07:14,733190.0,0.0,0.0
12:07:14,733220.0,0.0,0.0
12:07:14,733147.0,0.0,0.0
12:07:14,733063.0,0.0,0.0
12:07:14,733099.0,0.0,0.0
12:07:14,732988.0,0.0,0.0
12:07:14,733026.0,0.0,0.0
12:07:14,732968.0,0.0,0.0
12:07:14,732906.0,0.0,0.0
12:07:14,732931.0,0.0,0.0
12:07:14,732887.0,0.0,0.0
12:07:14,733039.0,0.0,0.0
12:07:14,733136.0,0.0,0.0
12:07:14,733228.0,0.0,0.0
12:07:14,733178.0,0.0,0.0
12:07:14,733013.0,0.0,0.0
12:07:14,733111.0,0.0,0.0
12:07:14,733098.0,0.0,0.0
12:07:14,733057.0,0.0,0.0
12:07:14,733105.0,0.0,0.0
12:07:14,733065.0,0.0,0.0
12:07:14,733149.0,0.0,0.0
12:07:14,733094.0,0.0,0.0
12:07:14,733079.0,0.0,0.0
12:07:14,733113.0,0.0,0.0
12:07:14,733017.0,0.0,0.0
12:07:14,733085.0,0.0,0.0
12:07:15,733045.0,0.0,0.0
12:07:15,733002.0,0.0,0.0
12:07:15,733058.0,0.0,0.0
12:07:15,733016.0,0.0,0.0
12:07:15,733059.0,0.0,0.0
12:07:15,732974.0,0.0,0.0
12:07:15,732942.0,0.0,0.0
12:07:15,733069.0,0.0,0.0
12:07:15,732981.0,0.0,0.0
12:07:15,733071.0,0.0,0.0
12:07:15,733074.0,0.0,0.0
12:07:15,733049.0,0.0,0.0
12:07:15,733125.0,0.0,0.0
12:07:15,733046.0,0.0,0.0
12:07:15,733102.0,0.0,0.0
12:07:15,732984.0,0.0,0.0
12:07:15,732938.0,0.0,0.0
12:07:15,732959.0,0.0,0.0
12:07:15,732833.0,0.0,0.0
12:07:15,732849.0,0.0,0.0
12:07:15,732808.0,0.0,0.0
12:07:15,732746.0,0.0,0.0
12:07:15,732769.0,0.0,0.0
12:07:15,732599.0,0.0,0.0
12:07:15,732658.0,0.0,0.0
12:07:15,732668.0,0.0,0.0
12:07:15,732693.0,0.0,0.0
12:07:15,732799.0,0.0,0.0
12:07:15,732726.0,0.0,0.0
12:07:15,732825.0,0.0,0.0
12:07:15,732841.0,0.0,0.0
12:07:15,732832.0,0.0,0.0
12:07:15,732887.0,0.0,0.0
12:07:15,732722.0,0.0,0.0
12:07:15,732763.0,0.0,0.0
12:07:15,732713.0,0.0,0.0
12:07:15,732700.0,0.0,0.0
12:07:15,732813.0,0.0,0.0
12:07:15,732737.0,0.0,0.0
12:07:15,732877.0,0.0,0.0
12:07:15,732893.0,0.0,0.0
12:07:15,732971.0,0.0,0.0
12:07:15,733024.0,0.0,0.0
12:07:15,732818.0,0.0,0.0
12:07:15,732859.0,0.0,0.0
12:07:15,732789.0,0.0,0.0
12:07:15,732731.0,0.0,0.0
12:07:15,732738.0,0.0,0.0
12:07:15,732584.0,0.0,0.0
12:07:15,732601.0,0.0,0.0
12:07:15,732533.0,0.0,0.0
12:07:15,732426.0,0.0,0.0
12:07:15,732414.0,0.0,0.0
12:07:15,732238.0,0.0,0.0
12:07:15,732216.0,0.0,0.0
12:07:15,732069.0,0.0,0.0
12:07:15,731982.0,0.0,0.0
12:07:15,731992.0,0.0,0.0
12:07:15,731847.0,0.0,0.0
12:07:15,731882.0,0.0,0.0
12:07:15,731745.0,0.0,0.0
12:07:15,731613.0,0.0,0.0
12:07:15,731673.0,0.0,0.0
12:07:15,731614.0,0.0,0.0
12:07:15,731520.0,0.0,0.0
12:07:15,731253.0,0.0,0.0
12:07:15,731131.0,0.0,0.0
12:07:15,731164.0,0.0,0.0
12:07:15,731024.0,0.0,0.0
12:07:15,731091.0,0.0,0.0
12:07:15,731026.0,0.0,0.0
12:07:15,731028.0,0.0,0.0
12:07:15,731116.0,0.0,0.0
12:07:15,731057.0,0.0,0.0
12:07:15,731055.0,0.0,0.0
12:07:15,730910.0,0.0,0.0
12:07:15,730887.0,0.0,0.0
12:07:15,730908.0,0.0,0.0
12:07:15,730798.0,0.0,0.0
12:07:15,730916.0,0.0,0.0
12:07:15,730860.0,0.0,0.0
12:07:15,730784.0,0.0,0.0
12:07:15,730776.0,0.0,0.0
12:07:15,730638.0,0.0,0.0
12:07:15,730648.0,0.0,0.0
12:07:15,730539.0,0.0,0.0
12:07:15,730488.0,0.0,0.0
12:07:15,730544.0,0.0,0.0
12:07:15,730349.0,0.0,0.0
12:07:15,730354.0,0.0,0.0
12:07:15,730340.0,0.0,0.0
12:07:15,730334.0,0.0,0.0
12:07:15,730370.0,0.0,0.0
12:07:15,730324.0,0.0,0.0
12:07:15,730469.0,0.0,0.0
12:07:15,730438.0,0.0,0.0
12:07:15,730442.0,0.0,0.0
12:07:15,730565.0,0.0,0.0
12:07:15,730519.0,0.0,0.0
12:07:15,730706.0,0.0,0.0
12:07:15,730746.0,0.0,0.0
12:07:15,730773.0,0.0,0.0
12:07:15,730873.0,0.0,0.0
12:07:15,730839.0,0.0,0.0
12:07:15,730980.0,0.0,0.0
12:07:15,730981.0,0.0,0.0
12:07:15,730996.0,0.0,0.0
12:07:15,731081.0,0.0,0.0
12:07:15,731023.0,0.0,0.0
12:07:15,731096.0,0.0,0.0
12:07:15,731041.0,0.0,0.0
12:07:15,731010.0,0.0,0.0
12:07:15,730970.0,0.0,0.0
12:07:15,730788.0,0.0,0.0
12:07:15,730739.0,0.0,0.0
12:07:15,730561.0,0.0,0.0
12:07:15,730509.0,0.0,0.0
12:07:15,730534.0,0.0,0.0
12:07:15,730389.0,0.0,0.0
12:07:15,730415.0,0.0,0.0
12:07:15,730341.0,0.0,0.0
12:07:15,730374.0,0.0,0.0
12:07:15,730436.0,0.0,0.0
12:07:15,730331.0,0.0,0.0
12:07:15,730458.0,0.0,0.0
12:07:16,730404.0,0.0,0.0
12:07:16,730393.0,0.0,0.0
12:07:16,730443.0,0.0,0.0
12:07:16,730336.0,0.0,0.0
12:07:16,730416.0,0.0,0.0
12:07:16,730279.0,0.0,0.0
12:07:16,730113.0,0.0,0.0
12:07:16,730042.0,0.0,0.0
12:07:16,729798.0,0.0,0.0
12:07:16,729793.0,0.0,0.0
12:07:16,729702.0,0.0,0.0
12:07:16,729661.0,0.0,0.0
12:07:16,729676.0,0.0,0.0
12:07:16,729623.0,0.0,0.0
12:07:16,729761.0,0.0,0.0
12:07:16,729778.0,0.0,0.0
12:07:16,729868.0,0.0,0.0
12:07:16,729990.0,0.0,0.0
12:07:16,729923.0,0.0,0.0
12:07:16,730066.0,0.0,0.0
12:07:16,730118.0,0.0,0.0
12:07:16,730153.0,0.0,0.0
12:07:16,730177.0,0.0,0.0
12:07:16,730073.0,0.0,0.0
12:07:16,730128.0,0.0,0.0
12:07:16,730128.0,0.0,0.0
12:07:16,730289.0,0.0,0.0
12:07:16,730427.0,0.0,0.0
12:07:16,730272.0,0.0,0.0
12:07:16,730242.0,0.0,0.0
12:07:16,730195.0,0.0,0.0
12:07:16,730248.0,0.0,0.0
12:07:16,730462.0,0.0,0.0
12:07:16,730375.0,0.0,0.0
12:07:16,730301.0,0.0,0.0
12:07:16,730289.0,0.0,0.0
12:07:16,730364.0,0.0,0.0
12:07:16,730494.0,0.0,0.0
12:07:16,730442.0,0.0,0.0
12:07:16,730564.0,0.0,0.0
12:07:16,730533.0,0.0,0.0
12:07:16,730544.0,0.0,0.0
12:07:16,730603.0,0.0,0.0
12:07:16,730542.0,0.0,0.0
12:07:16,730693.0,0.0,0.0
12:07:16,730748.0,0.0,0.0
12:07:16,730792.0,0.0,0.0
12:07:16,730894.0,0.0,0.0
12:07:16,730843.0,0.0,0.0
12:07:16,730916.0,0.0,0.0
12:07:16,730841.0,0.0,0.0
12:07:16,730814.0,0.0,0.0
12:07:16,730851.0,0.0,0.0
12:07:16,730857.0,0.0,0.0
12:07:16,730966.0,0.0,0.0
12:07:16,730966.0,0.0,0.0
12:07:16,731009.0,0.0,0.0
12:07:16,731126.0,0.0,0.0
12:07:16,731098.0,0.0,0.0
12:07:16,731258.0,0.0,0.0
12:07:16,731296.0,0.0,0.0
12:07:16,731270.0,0.0,0.0
12:07:16,731314.0,0.0,0.0
12:07:16,731273.0,0.0,0.0
12:07:16,731368.0,0.0,0.0
12:07:16,731224.0,0.0,0.0
12:07:16,731158.0,0.0,0.0
12:07:16,731198.0,0.0,0.0
12:07:16,731180.0,0.0,0.0
12:07:16,731279.0,0.0,0.0
12:07:16,731133.0,0.0,0.0
12:07:16,731039.0,0.0,0.0
12:07:16,731099.0,0.0,0.0
12:07:16,731024.0,0.0,0.0
12:07:16,731111.0,0.0,0.0
12:07:16,731043.0,0.0,0.0
12:07:16,730994.0,0.0,0.0
12:07:16,730938.0,0.0,0.0
12:07:16,730755.0,0.0,0.0
12:07:16,730870.0,0.0,0.0
12:07:16,730958.0,0.0,0.0
12:07:16,731050.0,0.0,0.0
12:07:16,731226.0,0.0,0.0
12:07:16,731244.0,0.0,0.0
12:07:16,731439.0,0.0,0.0
12:07:16,731541.0,0.0,0.0
12:07:16,731657.0,0.0,0.0
12:07:16,731829.0,0.0,0.0
12:07:16,731860.0,0.0,0.0
12:07:16,732061.0,0.0,0.0
12:07:16,732128.0,0.0,0.0
12:07:16,732227.0,0.0,0.0
12:07:16,732393.0,0.0,0.0
12:07:16,732354.0,0.0,0.0
12:07:16,732534.0,0.0,0.0
12:07:16,732607.0,0.0,0.0
12:07:16,732648.0,0.0,0.0
12:07:16,732681.0,0.0,0.0
12:07:16,732521.0,0.0,0.0
12:07:16,732583.0,0.0,0.0
12:07:16,732475.0,0.0,0.0
12:07:16,732427.0,0.0,0.0
12:07:16,732444.0,0.0,0.0
12:07:16,732272.0,0.0,0.0
12:07:16,732244.0,0.0,0.0
12:07:16,732149.0,0.0,0.0
12:07:16,732069.0,0.0,0.0
12:07:16,732088.0,0.0,0.0
12:07:16,731985.0,0.0,0.0
12:07:16,732028.0,0.0,0.0
12:07:16,731904.0,0.0,0.0
12:07:16,731906.0,0.0,0.0
12:07:16,731978.0,0.0,0.0
12:07:16,731901.0,0.0,0.0
12:07:16,732137.0,0.0,0.0
12:07:16,732050.0,0.0,0.0
12:07:16,731686.0,0.0,0.0
12:07:16,731591.0,0.0,0.0
12:07:16,731474.0,0.0,0.0
12:07:16,731634.0,0.0,0.0
12:07:16,731611.0,0.0,0.0
12:07:16,731590.0,0.0,0.0
12:07:16,731596.0,0.0,0.0
12:07:16,731441.0,0.0,0.0
12:07:16,731503.0,0.0,0.0
12:07:17,731413.0,0.0,0.0
12:07:17,731313.0,0.0,0.0
12:07:17,731333.0,0.0,0.0
12:07:17,731286.0,0.0,0.0
12:07:17,731403.0,0.0,0.0
12:07:17,731343.0,0.0,0.0
12:07:17,731412.0,0.0,0.0
12:07:17,731548.0,0.0,0.0
12:07:17,731427.0,0.0,0.0
12:07:17,731533.0,0.0,0.0
12:07:17,731546.0,0.0,0.0
12:07:17,731528.0,0.0,0.0
12:07:17,731563.0,0.0,0.0
12:07:17,731471.0,0.0,0.0
12:07:17,731518.0,0.0,0.0
12:07:17,731441.0,0.0,0.0
12:07:17,731378.0,0.0,0.0
12:07:17,731322.0,0.0,0.0
12:07:17,731151.0,0.0,0.0
12:07:17,731241.0,0.0,0.0
12:07:17,731223.0,0.0,0.0
12:07:17,731229.0,0.0,0.0
12:07:17,731316.0,0.0,0.0
12:07:17,731246.0,0.0,0.0
12:07:17,731319.0,0.0,0.0
12:07:17,731277.0,0.0,0.0
12:07:17,731258.0,0.0,0.0
12:07:17,731314.0,0.0,0.0
12:07:17,731204.0,0.0,0.0
12:07:17,731278.0,0.0,0.0
12:07:17,731200.0,0.0,0.0
12:07:17,731181.0,0.0,0.0
12:07:17,731226.0,0.0,0.0
12:07:17,731120.0,0.0,0.0
12:07:17,731193.0,0.0,0.0
12:07:17,731093.0,0.0,0.0
12:07:17,731057.0,0.0,0.0
12:07:17,731074.0,0.0,0.0
12:07:17,730939.0,0.0,0.0
12:07:17,731003.0,0.0,0.0
12:07:17,730933.0,0.0,0.0
12:07:17,730929.0,0.0,0.0
12:07:17,730976.0,0.0,0.0
12:07:17,730893.0,0.0,0.0
12:07:17,730974.0,0.0,0.0
12:07:17,730951.0,0.0,0.0
12:07:17,731003.0,0.0,0.0
12:07:17,731084.0,0.0,0.0
12:07:17,731026.0,0.0,0.0
12:07:17,731179.0,0.0,0.0
12:07:17,731188.0,0.0,0.0
12:07:17,731250.0,0.0,0.0
12:07:17,731386.0,0.0,0.0
12:07:17,731354.0,0.0,0.0
12:07:17,731529.0,0.0,0.0
12:07:17,731498.0,0.0,0.0
12:07:17,731491.0,0.0,0.0
12:07:17,731634.0,0.0,0.0
12:07:17,731651.0,0.0,0.0
12:07:17,731684.0,0.0,0.0
12:07:17,731663.0,0.0,0.0
12:07:17,731679.0,0.0,0.0
12:07:17,731712.0,0.0,0.0
12:07:17,731550.0,0.0,0.0
12:07:17,731573.0,0.0,0.0
12:07:17,731706.0,0.0,0.0
12:07:17,731921.0,0.0,0.0
12:07:17,732043.0,0.0,0.0
12:07:17,731821.0,0.0,0.0
12:07:17,731733.0,0.0,0.0
12:07:17,731609.0,0.0,0.0
12:07:17,731605.0,0.0,0.0
12:07:17,731671.0,0.0,0.0
12:07:17,731552.0,0.0,0.0
12:07:17,731549.0,0.0,0.0
12:07:17,731440.0,0.0,0.0
12:07:17,731308.0,0.0,0.0
12:07:17,731253.0,0.0,0.0
12:07:17,731071.0,0.0,0.0
12:07:17,731029.0,0.0,0.0
12:07:17,730911.0,0.0,0.0
12:07:17,730844.0,0.0,0.0
12:07:17,730886.0,0.0,0.0
12:07:17,730822.0,0.0,0.0
12:07:17,730964.0,0.0,0.0
12:07:17,730961.0,0.0,0.0
12:07:17,731012.0,0.0,0.0
12:07:17,731157.0,0.0,0.0
12:07:17,731086.0,0.0,0.0
12:07:17,731234.0,0.0,0.0
12:07:17,731234.0,0.0,0.0
12:07:17,731310.0,0.0,0.0
12:07:17,731449.0,0.0,0.0
12:07:17,731383.0,0.0,0.0
12:07:17,731446.0,0.0,0.0
12:07:17,731381.0,0.0,0.0
12:07:17,731354.0,0.0,0.0
12:07:17,731456.0,0.0,0.0
12:07:17,731379.0,0.0,0.0
12:07:17,731437.0,0.0,0.0
12:07:17,731364.0,0.0,0.0
12:07:17,731343.0,0.0,0.0
12:07:17,731272.0,0.0,0.0
12:07:17,731106.0,0.0,0.0
12:07:17,731236.0,0.0,0.0
12:07:17,731168.0,0.0,0.0
12:07:17,731132.0,0.0,0.0
12:07:17,731169.0,0.0,0.0
12:07:17,731061.0,0.0,0.0
12:07:17,731103.0,0.0,0.0
12:07:17,730983.0,0.0,0.0
12:07:17,730983.0,0.0,0.0
12:07:17,730977.0,0.0,0.0
12:07:17,730789.0,0.0,0.0
12:07:17,730890.0,0.0,0.0
12:07:17,730855.0,0.0,0.0
12:07:17,730863.0,0.0,0.0
12:07:17,730924.0,0.0,0.0
12:07:17,730858.0,0.0,0.0
12:07:17,730987.0,0.0,0.0
12:07:17,730956.0,0.0,0.0
12:07:17,730893.0,0.0,0.0
12:07:17,730841.0,0.0,0.0
12:07:17,730688.0,0.0,0.0
12:07:17,730702.0,0.0,0.0
12:07:18,730474.0,0.0,0.0
12:07:18,730493.0,0.0,0.0
12:07:18,730494.0,0.0,0.0
12:07:18,730326.0,0.0,0.0
12:07:18,730188.0,0.0,0.0
12:07:18,729763.0,0.0,0.0
12:07:18,729420.0,0.0,0.0
12:07:18,729298.0,0.0,0.0
12:07:18,729004.0,0.0,0.0
12:07:18,728929.0,0.0,0.0
12:07:18,728769.0,0.0,0.0
12:07:18,728666.0,0.0,0.0
12:07:18,728696.0,0.0,0.0
12:07:18,728577.0,0.0,0.0
12:07:18,728642.0,0.0,0.0
12:07:18,728399.0,0.0,0.0
12:07:18,728163.0,0.0,0.0
12:07:18,728113.0,0.0,0.0
12:07:18,728046.0,0.0,0.0
12:07:18,728262.0,0.0,0.0
12:07:18,728163.0,0.0,0.0
12:07:18,728098.0,0.0,0.0
12:07:18,728038.0,0.0,0.0
12:07:18,727898.0,0.0,0.0
12:07:18,728000.0,0.0,0.0
12:07:18,728049.0,0.0,0.0
12:07:18,728124.0,0.0,0.0
12:07:18,728174.0,0.0,0.0
12:07:18,728139.0,0.0,0.0
12:07:18,728298.0,0.0,0.0
12:07:18,728236.0,0.0,0.0
12:07:18,728294.0,0.0,0.0
12:07:18,728476.0,0.0,0.0
12:07:18,728534.0,0.0,0.0
12:07:18,728766.0,0.0,0.0
12:07:18,728785.0,0.0,0.0
12:07:18,728964.0,0.0,0.0
12:07:18,729062.0,0.0,0.0
12:07:18,728933.0,0.0,0.0
12:07:18,728954.0,0.0,0.0
12:07:18,728806.0,0.0,0.0
12:07:18,728768.0,0.0,0.0
12:07:18,728796.0,0.0,0.0
12:07:18,728687.0,0.0,0.0
12:07:18,728865.0,0.0,0.0
12:07:18,728972.0,0.0,0.0
12:07:18,729052.0,0.0,0.0
12:07:18,729157.0,0.0,0.0
12:07:18,729144.0,0.0,0.0
12:07:18,729298.0,0.0,0.0
12:07:18,729241.0,0.0,0.0
12:07:18,729208.0,0.0,0.0
12:07:18,729244.0,0.0,0.0
12:07:18,729223.0,0.0,0.0
12:07:18,729345.0,0.0,0.0
12:07:18,729232.0,0.0,0.0
12:07:18,729208.0,0.0,0.0
12:07:18,729176.0,0.0,0.0
12:07:18,728998.0,0.0,0.0
12:07:18,729089.0,0.0,0.0
12:07:18,729150.0,0.0,0.0
12:07:18,729294.0,0.0,0.0
12:07:18,729429.0,0.0,0.0
12:07:18,729308.0,0.0,0.0
12:07:18,729364.0,0.0,0.0
12:07:18,729328.0,0.0,0.0
12:07:18,729368.0,0.0,0.0
12:07:18,729485.0,0.0,0.0
12:07:18,729489.0,0.0,0.0
12:07:18,729649.0,0.0,0.0
12:07:18,729693.0,0.0,0.0
12:07:18,729804.0,0.0,0.0
12:07:18,729959.0,0.0,0.0
12:07:18,729954.0,0.0,0.0
12:07:18,730069.0,0.0,0.0
12:07:18,730086.0,0.0,0.0
12:07:18,730210.0,0.0,0.0
12:07:18,730350.0,0.0,0.0
12:07:18,730372.0,0.0,0.0
12:07:18,730520.0,0.0,0.0
12:07:18,730508.0,0.0,0.0
12:07:18,730550.0,0.0,0.0
12:07:18,730596.0,0.0,0.0
12:07:18,730501.0,0.0,0.0
12:07:18,730537.0,0.0,0.0
12:07:18,730399.0,0.0,0.0
12:07:18,730330.0,0.0,0.0
12:07:18,730296.0,0.0,0.0
12:07:18,730182.0,0.0,0.0
12:07:18,730193.0,0.0,0.0
12:07:18,730089.0,0.0,0.0
12:07:18,730019.0,0.0,0.0
12:07:18,730036.0,0.0,0.0
12:07:18,729948.0,0.0,0.0
12:07:18,730005.0,0.0,0.0
12:07:18,730067.0,0.0,0.0
12:07:18,730212.0,0.0,0.0
12:07:18,730117.0,0.0,0.0
12:07:18,729958.0,0.0,0.0
12:07:18,730063.0,0.0,0.0
12:07:18,730045.0,0.0,0.0
12:07:18,730138.0,0.0,0.0
12:07:18,730237.0,0.0,0.0
12:07:18,730190.0,0.0,0.0
12:07:18,730253.0,0.0,0.0
12:07:18,730197.0,0.0,0.0
12:07:18,730246.0,0.0,0.0
12:07:18,730373.0,0.0,0.0
12:07:18,730364.0,0.0,0.0
12:07:18,730471.0,0.0,0.0
12:07:18,730419.0,0.0,0.0
12:07:18,730376.0,0.0,0.0
12:07:18,730271.0,0.0,0.0
12:07:18,730143.0,0.0,0.0
12:07:18,730157.0,0.0,0.0
12:07:18,729976.0,0.0,0.0
12:07:18,729936.0,0.0,0.0
12:07:18,729916.0,0.0,0.0
12:07:18,729768.0,0.0,0.0
12:07:18,729828.0,0.0,0.0
12:07:18,729787.0,0.0,0.0
12:07:18,729853.0,0.0,0.0
12:07:18,729969.0,0.0,0.0
12:07:18,730014.0,0.0,0.0
12:07:18,730293.0,0.0,0.0
12:07:19,730514.0,0.0,0.0
12:07:19,730882.0,0.0,0.0
12:07:19,731117.0,0.0,0.0
12:07:19,731119.0,0.0,0.0
12:07:19,731373.0,0.0,0.0
12:07:19,731380.0,0.0,0.0
12:07:19,731384.0,0.0,0.0
12:07:19,731386.0,0.0,0.0
12:07:19,731137.0,0.0,0.0
12:07:19,731061.0,0.0,0.0
12:07:19,730928.0,0.0,0.0
12:07:19,730719.0,0.0,0.0
12:07:19,730678.0,0.0,0.0
12:07:19,730599.0,0.0,0.0
12:07:19,730549.0,0.0,0.0
12:07:19,730441.0,0.0,0.0
12:07:19,730360.0,0.0,0.0
12:07:19,730324.0,0.0,0.0
12:07:19,730163.0,0.0,0.0
12:07:19,730274.0,0.0,0.0
12:07:19,730254.0,0.0,0.0
12:07:19,730286.0,0.0,0.0
12:07:19,730436.0,0.0,0.0
12:07:19,730406.0,0.0,0.0
12:07:19,730473.0,0.0,0.0
12:07:19,730394.0,0.0,0.0
12:07:19,730418.0,0.0,0.0
12:07:19,730531.0,0.0,0.0
12:07:19,730539.0,0.0,0.0
12:07:19,730731.0,0.0,0.0
12:07:19,730839.0,0.0,0.0
12:07:19,730995.0,0.0,0.0
12:07:19,731056.0,0.0,0.0
12:07:19,731011.0,0.0,0.0
12:07:19,731211.0,0.0,0.0
12:07:19,731231.0,0.0,0.0
12:07:19,731232.0,0.0,0.0
12:07:19,731298.0,0.0,0.0
12:07:19,731236.0,0.0,0.0
12:07:19,731358.0,0.0,0.0
12:07:19,731309.0,0.0,0.0
12:07:19,731268.0,0.0,0.0
12:07:19,731237.0,0.0,0.0
12:07:19,731153.0,0.0,0.0
12:07:19,731285.0,0.0,0.0
12:07:19,731314.0,0.0,0.0
12:07:19,731417.0,0.0,0.0
12:07:19,731336.0,0.0,0.0
12:07:19,731124.0,0.0,0.0
12:07:19,731181.0,0.0,0.0
12:07:19,731089.0,0.0,0.0
12:07:19,731044.0,0.0,0.0
12:07:19,731054.0,0.0,0.0
12:07:19,730941.0,0.0,0.0
12:07:19,730971.0,0.0,0.0
12:07:19,730846.0,0.0,0.0
12:07:19,730830.0,0.0,0.0
12:07:19,730834.0,0.0,0.0
12:07:19,730749.0,0.0,0.0
12:07:19,730816.0,0.0,0.0
12:07:19,730723.0,0.0,0.0
12:07:19,730761.0,0.0,0.0
12:07:19,730804.0,0.0,0.0
12:07:19,730672.0,0.0,0.0
12:07:19,730719.0,0.0,0.0
12:07:19,730620.0,0.0,0.0
12:07:19,730617.0,0.0,0.0
12:07:19,730646.0,0.0,0.0
12:07:19,730584.0,0.0,0.0
12:07:19,730663.0,0.0,0.0
12:07:19,730624.0,0.0,0.0
12:07:19,730634.0,0.0,0.0
12:07:19,730670.0,0.0,0.0
12:07:19,730561.0,0.0,0.0
12:07:19,730628.0,0.0,0.0
12:07:19,730556.0,0.0,0.0
12:07:19,730565.0,0.0,0.0
12:07:19,730607.0,0.0,0.0
12:07:19,730503.0,0.0,0.0
12:07:19,730617.0,0.0,0.0
12:07:19,730591.0,0.0,0.0
12:07:19,730636.0,0.0,0.0
12:07:19,730706.0,0.0,0.0
12:07:19,730599.0,0.0,0.0
12:07:19,730728.0,0.0,0.0
12:07:19,730700.0,0.0,0.0
12:07:19,730744.0,0.0,0.0
12:07:19,730846.0,0.0,0.0
12:07:19,730819.0,0.0,0.0
12:07:19,730976.0,0.0,0.0
12:07:19,730989.0,0.0,0.0
12:07:19,731081.0,0.0,0.0
12:07:19,731188.0,0.0,0.0
12:07:19,731103.0,0.0,0.0
12:07:19,731238.0,0.0,0.0
12:07:19,731233.0,0.0,0.0
12:07:19,731268.0,0.0,0.0
12:07:19,731269.0,0.0,0.0
12:07:19,731204.0,0.0,0.0
12:07:19,731326.0,0.0,0.0
12:07:19,731240.0,0.0,0.0
12:07:19,731295.0,0.0,0.0
12:07:19,731369.0,0.0,0.0
12:07:19,731327.0,0.0,0.0
12:07:19,731374.0,0.0,0.0
12:07:19,731237.0,0.0,0.0
12:07:19,731158.0,0.0,0.0
12:07:19,731132.0,0.0,0.0
12:07:19,730976.0,0.0,0.0
12:07:19,731015.0,0.0,0.0
12:07:19,730883.0,0.0,0.0
12:07:19,730804.0,0.0,0.0
12:07:19,730780.0,0.0,0.0
12:07:19,730678.0,0.0,0.0
12:07:19,730723.0,0.0,0.0
12:07:19,730634.0,0.0,0.0
12:07:19,730591.0,0.0,0.0
12:07:19,730618.0,0.0,0.0
12:07:19,730618.0,0.0,0.0
12:07:19,730799.0,0.0,0.0
12:07:19,730883.0,0.0,0.0
12:07:19,730856.0,0.0,0.0
12:07:19,730803.0,0.0,0.0
12:07:19,730763.0,0.0,0.0
12:07:20,730944.0,0.0,0.0
12:07:20,730986.0,0.0,0.0
12:07:20,731111.0,0.0,0.0
12:07:20,731256.0,0.0,0.0
12:07:20,731248.0,0.0,0.0
12:07:20,731459.0,0.0,0.0
12:07:20,731519.0,0.0,0.0
12:07:20,731684.0,0.0,0.0
12:07:20,731854.0,0.0,0.0
12:07:20,731854.0,0.0,0.0
12:07:20,731941.0,0.0,0.0
12:07:20,731855.0,0.0,0.0
12:07:20,731857.0,0.0,0.0
12:07:20,731903.0,0.0,0.0
12:07:20,731727.0,0.0,0.0
12:07:20,731676.0,0.0,0.0
12:07:20,731504.0,0.0,0.0
12:07:20,731382.0,0.0,0.0
12:07:20,731283.0,0.0,0.0
12:07:20,731090.0,0.0,0.0
12:07:20,731101.0,0.0,0.0
12:07:20,730975.0,0.0,0.0
12:07:20,730945.0,0.0,0.0
12:07:20,730963.0,0.0,0.0
12:07:20,730880.0,0.0,0.0
12:07:20,730961.0,0.0,0.0
12:07:20,730908.0,0.0,0.0
12:07:20,730902.0,0.0,0.0
12:07:20,730976.0,0.0,0.0
12:07:20,730928.0,0.0,0.0
12:07:20,731024.0,0.0,0.0
12:07:20,731006.0,0.0,0.0
12:07:20,731043.0,0.0,0.0
12:07:20,731076.0,0.0,0.0
12:07:20,730983.0,0.0,0.0
12:07:20,731032.0,0.0,0.0
12:07:20,730934.0,0.0,0.0
12:07:20,730909.0,0.0,0.0
12:07:20,730919.0,0.0,0.0
12:07:20,730824.0,0.0,0.0
12:07:20,730913.0,0.0,0.0
12:07:20,730895.0,0.0,0.0
12:07:20,730905.0,0.0,0.0
12:07:20,730987.0,0.0,0.0
12:07:20,730951.0,0.0,0.0
12:07:20,731128.0,0.0,0.0
12:07:20,731111.0,0.0,0.0
12:07:20,731182.0,0.0,0.0
12:07:20,731268.0,0.0,0.0
12:07:20,731241.0,0.0,0.0
12:07:20,731386.0,0.0,0.0
12:07:20,731342.0,0.0,0.0
12:07:20,731378.0,0.0,0.0
12:07:20,731381.0,0.0,0.0
12:07:20,731155.0,0.0,0.0
12:07:20,731119.0,0.0,0.0
12:07:20,730960.0,0.0,0.0
12:07:20,730836.0,0.0,0.0
12:07:20,730799.0,0.0,0.0
12:07:20,730609.0,0.0,0.0
12:07:20,730593.0,0.0,0.0
12:07:20,730473.0,0.0,0.0
12:07:20,730396.0,0.0,0.0
12:07:20,730388.0,0.0,0.0
12:07:20,730289.0,0.0,0.0
12:07:20,730371.0,0.0,0.0
12:07:20,730374.0,0.0,0.0
12:07:20,730454.0,0.0,0.0
12:07:20,730608.0,0.0,0.0
12:07:20,730558.0,0.0,0.0
12:07:20,730654.0,0.0,0.0
12:07:20,730703.0,0.0,0.0
12:07:20,730683.0,0.0,0.0
12:07:20,730569.0,0.0,0.0
12:07:20,730293.0,0.0,0.0
12:07:20,730091.0,0.0,0.0
12:07:20,729709.0,0.0,0.0
12:07:20,729543.0,0.0,0.0
12:07:20,729535.0,0.0,0.0
12:07:20,729441.0,0.0,0.0
12:07:20,729527.0,0.0,0.0
12:07:20,729469.0,0.0,0.0
12:07:20,729510.0,0.0,0.0
12:07:20,729438.0,0.0,0.0
12:07:20,729178.0,0.0,0.0
12:07:20,729111.0,0.0,0.0
12:07:20,728904.0,0.0,0.0
12:07:20,728855.0,0.0,0.0
12:07:20,728865.0,0.0,0.0
12:07:20,728783.0,0.0,0.0
12:07:20,728932.0,0.0,0.0
12:07:20,728896.0,0.0,0.0
12:07:20,728862.0,0.0,0.0
12:07:20,728800.0,0.0,0.0
12:07:20,728733.0,0.0,0.0
12:07:20,728729.0,0.0,0.0
12:07:20,728577.0,0.0,0.0
12:07:20,728518.0,0.0,0.0
12:07:20,728529.0,0.0,0.0
12:07:20,728485.0,0.0,0.0
12:07:20,728581.0,0.0,0.0
12:07:20,728623.0,0.0,0.0
12:07:20,728695.0,0.0,0.0
12:07:20,728763.0,0.0,0.0
12:07:20,728681.0,0.0,0.0
12:07:20,728695.0,0.0,0.0
12:07:20,728647.0,0.0,0.0
12:07:20,728683.0,0.0,0.0
12:07:20,728689.0,0.0,0.0
12:07:20,728616.0,0.0,0.0
12:07:20,728712.0,0.0,0.0
12:07:20,728689.0,0.0,0.0
12:07:20,728751.0,0.0,0.0
12:07:20,728783.0,0.0,0.0
12:07:20,728711.0,0.0,0.0
12:07:20,728764.0,0.0,0.0
12:07:20,728756.0,0.0,0.0
12:07:20,728794.0,0.0,0.0
12:07:20,728821.0,0.0,0.0
12:07:20,728752.0,0.0,0.0
12:07:20,728869.0,0.0,0.0
12:07:20,728763.0,0.0,0.0
12:07:20,728703.0,0.0,0.0
12:07:20,728683.0,0.0,0.0
12:07:20,728555.0,0.0,0.0
12:07:21,728619.0,0.0,0.0
12:07:21,728575.0,0.0,0.0
12:07:21,728686.0,0.0,0.0
12:07:21,728829.0,0.0,0.0
12:07:21,728805.0,0.0,0.0
12:07:21,728870.0,0.0,0.0
12:07:21,728849.0,0.0,0.0
12:07:21,728936.0,0.0,0.0
12:07:21,729025.0,0.0,0.0
12:07:21,728911.0,0.0,0.0
12:07:21,728957.0,0.0,0.0
12:07:21,728870.0,0.0,0.0
12:07:21,728900.0,0.0,0.0
12:07:21,728955.0,0.0,0.0
12:07:21,728916.0,0.0,0.0
12:07:21,729021.0,0.0,0.0
12:07:21,728973.0,0.0,0.0
12:07:21,729024.0,0.0,0.0
12:07:21,729041.0,0.0,0.0
12:07:21,728944.0,0.0,0.0
12:07:21,729061.0,0.0,0.0
12:07:21,729102.0,0.0,0.0
12:07:21,729349.0,0.0,0.0
12:07:21,729573.0,0.0,0.0
12:07:21,729421.0,0.0,0.0
12:07:21,729491.0,0.0,0.0
12:07:21,729481.0,0.0,0.0
12:07:21,729597.0,0.0,0.0
12:07:21,729705.0,0.0,0.0
12:07:21,729638.0,0.0,0.0
12:07:21,729711.0,0.0,0.0
12:07:21,729618.0,0.0,0.0
12:07:21,729554.0,0.0,0.0
12:07:21,729516.0,0.0,0.0
12:07:21,729388.0,0.0,0.0
12:07:21,729393.0,0.0,0.0
12:07:21,729255.0,0.0,0.0
12:07:21,729198.0,0.0,0.0
12:07:21,729138.0,0.0,0.0
12:07:21,728974.0,0.0,0.0
12:07:21,728966.0,0.0,0.0
12:07:21,728743.0,0.0,0.0
12:07:21,728639.0,0.0,0.0
12:07:21,728550.0,0.0,0.0
12:07:21,728391.0,0.0,0.0
12:07:21,728428.0,0.0,0.0
12:07:21,728294.0,0.0,0.0
12:07:21,728271.0,0.0,0.0
12:07:21,728262.0,0.0,0.0
12:07:21,728194.0,0.0,0.0
12:07:21,728283.0,0.0,0.0
12:07:21,728261.0,0.0,0.0
12:07:21,728366.0,0.0,0.0
12:07:21,728456.0,0.0,0.0
12:07:21,728419.0,0.0,0.0
12:07:21,728556.0,0.0,0.0
12:07:21,728528.0,0.0,0.0
12:07:21,728589.0,0.0,0.0
12:07:21,728668.0,0.0,0.0
12:07:21,728584.0,0.0,0.0
12:07:21,728692.0,0.0,0.0
12:07:21,728634.0,0.0,0.0
12:07:21,728639.0,0.0,0.0
12:07:21,728616.0,0.0,0.0
12:07:21,728475.0,0.0,0.0
12:07:21,728550.0,0.0,0.0
12:07:21,728508.0,0.0,0.0
12:07:21,728568.0,0.0,0.0
12:07:21,728654.0,0.0,0.0
12:07:21,728664.0,0.0,0.0
12:07:21,728851.0,0.0,0.0
12:07:21,728917.0,0.0,0.0
12:07:21,729043.0,0.0,0.0
12:07:21,728887.0,0.0,0.0
12:07:21,728678.0,0.0,0.0
12:07:21,728963.0,0.0,0.0
12:07:21,728854.0,0.0,0.0
12:07:21,728737.0,0.0,0.0
12:07:21,728808.0,0.0,0.0
12:07:21,728900.0,0.0,0.0
12:07:21,729112.0,0.0,0.0
12:07:21,729168.0,0.0,0.0
12:07:21,729294.0,0.0,0.0
12:07:21,729363.0,0.0,0.0
12:07:21,729264.0,0.0,0.0
12:07:21,729299.0,0.0,0.0
12:07:21,729250.0,0.0,0.0
12:07:21,729300.0,0.0,0.0
12:07:21,729444.0,0.0,0.0
12:07:21,729468.0,0.0,0.0
12:07:21,729676.0,0.0,0.0
12:07:21,729631.0,0.0,0.0
12:07:21,729687.0,0.0,0.0
12:07:21,729748.0,0.0,0.0
12:07:21,729598.0,0.0,0.0
12:07:21,729583.0,0.0,0.0
12:07:21,729536.0,0.0,0.0
12:07:21,729601.0,0.0,0.0
12:07:21,729634.0,0.0,0.0
12:07:21,729612.0,0.0,0.0
12:07:21,729641.0,0.0,0.0
12:07:21,729309.0,0.0,0.0
12:07:21,729255.0,0.0,0.0
12:07:21,729348.0,0.0,0.0
12:07:21,729369.0,0.0,0.0
12:07:21,729546.0,0.0,0.0
12:07:21,729504.0,0.0,0.0
12:07:21,729591.0,0.0,0.0
12:07:21,729726.0,0.0,0.0
12:07:21,729748.0,0.0,0.0
12:07:21,729971.0,0.0,0.0
12:07:21,730011.0,0.0,0.0
12:07:21,730079.0,0.0,0.0
12:07:21,730180.0,0.0,0.0
12:07:21,730096.0,0.0,0.0
12:07:21,730213.0,0.0,0.0
12:07:21,730173.0,0.0,0.0
12:07:21,730244.0,0.0,0.0
12:07:21,730322.0,0.0,0.0
12:07:21,730240.0,0.0,0.0
12:07:21,730346.0,0.0,0.0
12:07:21,730275.0,0.0,0.0
12:07:21,730314.0,0.0,0.0
12:07:21,730446.0,0.0,0.0
12:07:21,730426.0,0.0,0.0
12:07:22,730556.0,0.0,0.0
12:07:22,730556.0,0.0,0.0
12:07:22,730636.0,0.0,0.0
12:07:22,730726.0,0.0,0.0
12:07:22,730615.0,0.0,0.0
12:07:22,730707.0,0.0,0.0
12:07:22,730591.0,0.0,0.0
12:07:22,730541.0,0.0,0.0
12:07:22,730577.0,0.0,0.0
12:07:22,730448.0,0.0,0.0
12:07:22,730441.0,0.0,0.0
12:07:22,730273.0,0.0,0.0
12:07:22,730169.0,0.0,0.0
12:07:22,730124.0,0.0,0.0
12:07:22,729943.0,0.0,0.0
12:07:22,729950.0,0.0,0.0
12:07:22,729806.0,0.0,0.0
12:07:22,729711.0,0.0,0.0
12:07:22,729662.0,0.0,0.0
12:07:22,729519.0,0.0,0.0
12:07:22,729529.0,0.0,0.0
12:07:22,729404.0,0.0,0.0
12:07:22,729310.0,0.0,0.0
12:07:22,729298.0,0.0,0.0
12:07:22,729208.0,0.0,0.0
12:07:22,729281.0,0.0,0.0
12:07:22,729199.0,0.0,0.0
12:07:22,729167.0,0.0,0.0
12:07:22,729156.0,0.0,0.0
12:07:22,728999.0,0.0,0.0
12:07:22,729018.0,0.0,0.0
12:07:22,728922.0,0.0,0.0
12:07:22,728923.0,0.0,0.0
12:07:22,728949.0,0.0,0.0
12:07:22,728928.0,0.0,0.0
12:07:22,729060.0,0.0,0.0
12:07:22,729024.0,0.0,0.0
12:07:22,729086.0,0.0,0.0
12:07:22,729229.0,0.0,0.0
12:07:22,729162.0,0.0,0.0
12:07:22,729311.0,0.0,0.0
12:07:22,729316.0,0.0,0.0
12:07:22,729371.0,0.0,0.0
12:07:22,729442.0,0.0,0.0
12:07:22,729384.0,0.0,0.0
12:07:22,729485.0,0.0,0.0
12:07:22,729435.0,0.0,0.0
12:07:22,729424.0,0.0,0.0
12:07:22,729390.0,0.0,0.0
12:07:22,729239.0,0.0,0.0
12:07:22,729334.0,0.0,0.0
12:07:22,729318.0,0.0,0.0
12:07:22,729436.0,0.0,0.0
12:07:22,729505.0,0.0,0.0
12:07:22,729284.0,0.0,0.0
12:07:22,729366.0,0.0,0.0
12:07:22,729367.0,0.0,0.0
12:07:22,729445.0,0.0,0.0
12:07:22,729554.0,0.0,0.0
12:07:22,729476.0,0.0,0.0
12:07:22,729558.0,0.0,0.0
12:07:22,729423.0,0.0,0.0
12:07:22,729323.0,0.0,0.0
12:07:22,729280.0,0.0,0.0
12:07:22,729133.0,0.0,0.0
12:07:22,729192.0,0.0,0.0
12:07:22,729209.0,0.0,0.0
12:07:22,729219.0,0.0,0.0
12:07:22,729058.0,0.0,0.0
12:07:22,728866.0,0.0,0.0
12:07:22,728914.0,0.0,0.0
12:07:22,728794.0,0.0,0.0
12:07:22,728788.0,0.0,0.0
12:07:22,728819.0,0.0,0.0
12:07:22,728722.0,0.0,0.0
12:07:22,728724.0,0.0,0.0
12:07:22,728626.0,0.0,0.0
12:07:22,728652.0,0.0,0.0
12:07:22,728708.0,0.0,0.0
12:07:22,728624.0,0.0,0.0
12:07:22,728715.0,0.0,0.0
12:07:22,728648.0,0.0,0.0
12:07:22,728734.0,0.0,0.0
12:07:22,728864.0,0.0,0.0
12:07:22,728882.0,0.0,0.0
12:07:22,729047.0,0.0,0.0
12:07:22,729094.0,0.0,0.0
12:07:22,729189.0,0.0,0.0
12:07:22,729332.0,0.0,0.0
12:07:22,729323.0,0.0,0.0
12:07:22,729562.0,0.0,0.0
12:07:22,729651.0,0.0,0.0
12:07:22,729720.0,0.0,0.0
12:07:22,729823.0,0.0,0.0
12:07:22,729818.0,0.0,0.0
12:07:22,729914.0,0.0,0.0
12:07:22,729798.0,0.0,0.0
12:07:22,729729.0,0.0,0.0
12:07:22,729685.0,0.0,0.0
12:07:22,729494.0,0.0,0.0
12:07:22,729474.0,0.0,0.0
12:07:22,729389.0,0.0,0.0
12:07:22,729384.0,0.0,0.0
12:07:22,729456.0,0.0,0.0
12:07:22,729401.0,0.0,0.0
12:07:22,729445.0,0.0,0.0
12:07:22,729348.0,0.0,0.0
12:07:22,729329.0,0.0,0.0
12:07:22,729353.0,0.0,0.0
12:07:22,729202.0,0.0,0.0
12:07:22,729144.0,0.0,0.0
12:07:22,728800.0,0.0,0.0
12:07:22,728451.0,0.0,0.0
12:07:22,728202.0,0.0,0.0
12:07:22,727882.0,0.0,0.0
12:07:22,727694.0,0.0,0.0
12:07:22,727365.0,0.0,0.0
12:07:22,727074.0,0.0,0.0
12:07:22,726858.0,0.0,0.0
12:07:22,726569.0,0.0,0.0
12:07:22,726504.0,0.0,0.0
12:07:22,726359.0,0.0,0.0
12:07:22,726324.0,0.0,0.0
12:07:22,726342.0,0.0,0.0
12:07:22,726288.0,0.0,0.0
12:07:23,726428.0,0.0,0.0
12:07:23,726457.0,0.0,0.0
12:07:23,726605.0,0.0,0.0
12:07:23,726769.0,0.0,0.0
12:07:23,726751.0,0.0,0.0
12:07:23,726808.0,0.0,0.0
12:07:23,726833.0,0.0,0.0
12:07:23,727006.0,0.0,0.0
12:07:23,727226.0,0.0,0.0
12:07:23,727383.0,0.0,0.0
12:07:23,727428.0,0.0,0.0
12:07:23,727326.0,0.0,0.0
12:07:23,727434.0,0.0,0.0
12:07:23,727445.0,0.0,0.0
12:07:23,727376.0,0.0,0.0
12:07:23,727463.0,0.0,0.0
12:07:23,727424.0,0.0,0.0
12:07:23,727532.0,0.0,0.0
12:07:23,727683.0,0.0,0.0
12:07:23,727741.0,0.0,0.0
12:07:23,727981.0,0.0,0.0
12:07:23,728079.0,0.0,0.0
12:07:23,728259.0,0.0,0.0
12:07:23,728442.0,0.0,0.0
12:07:23,728511.0,0.0,0.0
12:07:23,728658.0,0.0,0.0
12:07:23,728601.0,0.0,0.0
12:07:23,728584.0,0.0,0.0
12:07:23,728480.0,0.0,0.0
12:07:23,728271.0,0.0,0.0
12:07:23,728226.0,0.0,0.0
12:07:23,727991.0,0.0,0.0
12:07:23,727876.0,0.0,0.0
12:07:23,727843.0,0.0,0.0
12:07:23,727707.0,0.0,0.0
12:07:23,727791.0,0.0,0.0
12:07:23,727779.0,0.0,0.0
12:07:23,727796.0,0.0,0.0
12:07:23,727744.0,0.0,0.0
12:07:23,727594.0,0.0,0.0
12:07:23,727724.0,0.0,0.0
12:07:23,727729.0,0.0,0.0
12:07:23,727768.0,0.0,0.0
12:07:23,727868.0,0.0,0.0
12:07:23,727908.0,0.0,0.0
12:07:23,728102.0,0.0,0.0
12:07:23,728164.0,0.0,0.0
12:07:23,728324.0,0.0,0.0
12:07:23,728461.0,0.0,0.0
12:07:23,728509.0,0.0,0.0
12:07:23,728711.0,0.0,0.0
12:07:23,728751.0,0.0,0.0
12:07:23,728884.0,0.0,0.0
12:07:23,729014.0,0.0,0.0
12:07:23,728999.0,0.0,0.0
12:07:23,729126.0,0.0,0.0
12:07:23,729049.0,0.0,0.0
12:07:23,729053.0,0.0,0.0
12:07:23,729070.0,0.0,0.0
12:07:23,729006.0,0.0,0.0
12:07:23,729061.0,0.0,0.0
12:07:23,728888.0,0.0,0.0
12:07:23,728813.0,0.0,0.0
12:07:23,728756.0,0.0,0.0
12:07:23,728604.0,0.0,0.0
12:07:23,728697.0,0.0,0.0
12:07:23,728639.0,0.0,0.0
12:07:23,728692.0,0.0,0.0
12:07:23,728756.0,0.0,0.0
12:07:23,728761.0,0.0,0.0
12:07:23,728891.0,0.0,0.0
12:07:23,728960.0,0.0,0.0
12:07:23,729132.0,0.0,0.0
12:07:23,729220.0,0.0,0.0
12:07:23,729157.0,0.0,0.0
12:07:23,729352.0,0.0,0.0
12:07:23,729388.0,0.0,0.0
12:07:23,729559.0,0.0,0.0
12:07:23,729640.0,0.0,0.0
12:07:23,729543.0,0.0,0.0
12:07:23,729488.0,0.0,0.0
12:07:23,729279.0,0.0,0.0
12:07:23,729282.0,0.0,0.0
12:07:23,729329.0,0.0,0.0
12:07:23,729253.0,0.0,0.0
12:07:23,729370.0,0.0,0.0
12:07:23,729273.0,0.0,0.0
12:07:23,729263.0,0.0,0.0
12:07:23,729354.0,0.0,0.0
12:07:23,729422.0,0.0,0.0
12:07:23,729765.0,0.0,0.0
12:07:23,729709.0,0.0,0.0
12:07:23,729568.0,0.0,0.0
12:07:23,729539.0,0.0,0.0
12:07:23,729461.0,0.0,0.0
12:07:23,729619.0,0.0,0.0
12:07:23,729569.0,0.0,0.0
12:07:23,729583.0,0.0,0.0
12:07:23,729555.0,0.0,0.0
12:07:23,729404.0,0.0,0.0
12:07:23,729313.0,0.0,0.0
12:07:23,729062.0,0.0,0.0
12:07:23,728907.0,0.0,0.0
12:07:23,728808.0,0.0,0.0
12:07:23,728646.0,0.0,0.0
12:07:23,728644.0,0.0,0.0
12:07:23,728463.0,0.0,0.0
12:07:23,728388.0,0.0,0.0
12:07:23,728477.0,0.0,0.0
12:07:23,728487.0,0.0,0.0
12:07:23,728808.0,0.0,0.0
12:07:23,728928.0,0.0,0.0
12:07:23,728996.0,0.0,0.0
12:07:23,729109.0,0.0,0.0
12:07:23,729245.0,0.0,0.0
12:07:23,729556.0,0.0,0.0
12:07:23,729691.0,0.0,0.0
12:07:23,729832.0,0.0,0.0
12:07:23,729982.0,0.0,0.0
12:07:23,730061.0,0.0,0.0
12:07:23,730300.0,0.0,0.0
12:07:23,730362.0,0.0,0.0
12:07:23,730489.0,0.0,0.0
12:07:23,730563.0,0.0,0.0
12:07:23,730490.0,0.0,0.0
12:07:24,730496.0,0.0,0.0
12:07:24,730365.0,0.0,0.0
12:07:24,730355.0,0.0,0.0
12:07:24,730330.0,0.0,0.0
12:07:24,730234.0,0.0,0.0
12:07:24,730379.0,0.0,0.0
12:07:24,730283.0,0.0,0.0
12:07:24,730271.0,0.0,0.0
12:07:24,730301.0,0.0,0.0
12:07:24,730132.0,0.0,0.0
12:07:24,730188.0,0.0,0.0
12:07:24,730185.0,0.0,0.0
12:07:24,730224.0,0.0,0.0
12:07:24,730236.0,0.0,0.0
12:07:24,730140.0,0.0,0.0
12:07:24,730173.0,0.0,0.0
12:07:24,730066.0,0.0,0.0
12:07:24,730029.0,0.0,0.0
12:07:24,730043.0,0.0,0.0
12:07:24,730055.0,0.0,0.0
12:07:24,730193.0,0.0,0.0
12:07:24,730177.0,0.0,0.0
12:07:24,730171.0,0.0,0.0
12:07:24,730283.0,0.0,0.0
12:07:24,730394.0,0.0,0.0
12:07:24,730645.0,0.0,0.0
12:07:24,730611.0,0.0,0.0
12:07:24,730640.0,0.0,0.0
12:07:24,730784.0,0.0,0.0
12:07:24,730859.0,0.0,0.0
12:07:24,731079.0,0.0,0.0
12:07:24,731076.0,0.0,0.0
12:07:24,731122.0,0.0,0.0
12:07:24,731139.0,0.0,0.0
12:07:24,730979.0,0.0,0.0
12:07:24,730993.0,0.0,0.0
12:07:24,730896.0,0.0,0.0
12:07:24,730868.0,0.0,0.0
12:07:24,730887.0,0.0,0.0
12:07:24,730754.0,0.0,0.0
12:07:24,730716.0,0.0,0.0
12:07:24,730369.0,0.0,0.0
12:07:24,730265.0,0.0,0.0
12:07:24,730198.0,0.0,0.0
12:07:24,730245.0,0.0,0.0
12:07:24,730529.0,0.0,0.0
12:07:24,730497.0,0.0,0.0
12:07:24,730581.0,0.0,0.0
12:07:24,730638.0,0.0,0.0
12:07:24,730288.0,0.0,0.0
12:07:24,730139.0,0.0,0.0
12:07:24,729962.0,0.0,0.0
12:07:24,729891.0,0.0,0.0
12:07:24,729826.0,0.0,0.0
12:07:24,729705.0,0.0,0.0
12:07:24,729751.0,0.0,0.0
12:07:24,729648.0,0.0,0.0
12:07:24,729614.0,0.0,0.0
12:07:24,729601.0,0.0,0.0
12:07:24,729463.0,0.0,0.0
12:07:24,729478.0,0.0,0.0
12:07:24,729384.0,0.0,0.0
12:07:24,729392.0,0.0,0.0
12:07:24,729420.0,0.0,0.0
12:07:24,729296.0,0.0,0.0
12:07:24,729328.0,0.0,0.0
12:07:24,729250.0,0.0,0.0
12:07:24,729279.0,0.0,0.0
12:07:24,729354.0,0.0,0.0
12:07:24,729322.0,0.0,0.0
12:07:24,729394.0,0.0,0.0
12:07:24,729306.0,0.0,0.0
12:07:24,729326.0,0.0,0.0
12:07:24,729368.0,0.0,0.0
12:07:24,729279.0,0.0,0.0
12:07:24,729393.0,0.0,0.0
12:07:24,729361.0,0.0,0.0
12:07:24,729424.0,0.0,0.0
12:07:24,729481.0,0.0,0.0
12:07:24,729384.0,0.0,0.0
12:07:24,729485.0,0.0,0.0
12:07:24,729545.0,0.0,0.0
12:07:24,729447.0,0.0,0.0
12:07:24,729328.0,0.0,0.0
12:07:24,729183.0,0.0,0.0
12:07:24,729202.0,0.0,0.0
12:07:24,729144.0,0.0,0.0
12:07:24,729187.0,0.0,0.0
12:07:24,729219.0,0.0,0.0
12:07:24,729159.0,0.0,0.0
12:07:24,729273.0,0.0,0.0
12:07:24,729206.0,0.0,0.0
12:07:24,729242.0,0.0,0.0
12:07:24,729311.0,0.0,0.0
12:07:24,729204.0,0.0,0.0
12:07:24,729258.0,0.0,0.0
12:07:24,729194.0,0.0,0.0
12:07:24,729164.0,0.0,0.0
12:07:24,729160.0,0.0,0.0
12:07:24,729081.0,0.0,0.0
12:07:24,729222.0,0.0,0.0
12:07:24,729188.0,0.0,0.0
12:07:24,729208.0,0.0,0.0
12:07:24,729249.0,0.0,0.0
12:07:24,729195.0,0.0,0.0
12:07:24,729289.0,0.0,0.0
12:07:24,729209.0,0.0,0.0
12:07:24,729188.0,0.0,0.0
12:07:24,729220.0,0.0,0.0
12:07:24,729131.0,0.0,0.0
12:07:24,729222.0,0.0,0.0
12:07:24,729191.0,0.0,0.0
12:07:24,729271.0,0.0,0.0
12:07:24,729397.0,0.0,0.0
12:07:24,729378.0,0.0,0.0
12:07:24,729521.0,0.0,0.0
12:07:24,729526.0,0.0,0.0
12:07:24,729564.0,0.0,0.0
12:07:24,729651.0,0.0,0.0
12:07:24,729619.0,0.0,0.0
12:07:24,729688.0,0.0,0.0
12:07:24,729653.0,0.0,0.0
12:07:24,729668.0,0.0,0.0
12:07:24,729667.0,0.0,0.0
12:07:24,729536.0,0.0,0.0
12:07:25,729521.0,0.0,0.0
12:07:25,729442.0,0.0,0.0
12:07:25,729554.0,0.0,0.0
12:07:25,729653.0,0.0,0.0
12:07:25,729701.0,0.0,0.0
12:07:25,729676.0,0.0,0.0
12:07:25,729541.0,0.0,0.0
12:07:25,729614.0,0.0,0.0
12:07:25,729735.0,0.0,0.0
12:07:25,729691.0,0.0,0.0
12:07:25,729746.0,0.0,0.0
12:07:25,729695.0,0.0,0.0
12:07:25,729771.0,0.0,0.0
12:07:25,729764.0,0.0,0.0
12:07:25,729571.0,0.0,0.0
12:07:25,729558.0,0.0,0.0
12:07:25,729393.0,0.0,0.0
12:07:25,729434.0,0.0,0.0
12:07:25,729437.0,0.0,0.0
12:07:25,729301.0,0.0,0.0
12:07:25,729480.0,0.0,0.0
12:07:25,729460.0,0.0,0.0
12:07:25,729455.0,0.0,0.0
12:07:25,729543.0,0.0,0.0
12:07:25,729531.0,0.0,0.0
12:07:25,729705.0,0.0,0.0
12:07:25,729698.0,0.0,0.0
12:07:25,729774.0,0.0,0.0
12:07:25,729846.0,0.0,0.0
12:07:25,729792.0,0.0,0.0
12:07:25,729939.0,0.0,0.0
12:07:25,729824.0,0.0,0.0
12:07:25,729701.0,0.0,0.0
12:07:25,729663.0,0.0,0.0
12:07:25,729564.0,0.0,0.0
12:07:25,729709.0,0.0,0.0
12:07:25,729643.0,0.0,0.0
12:07:25,729558.0,0.0,0.0
12:07:25,729431.0,0.0,0.0
12:07:25,729212.0,0.0,0.0
12:07:25,729202.0,0.0,0.0
12:07:25,729035.0,0.0,0.0
12:07:25,728973.0,0.0,0.0
12:07:25,728993.0,0.0,0.0
12:07:25,728870.0,0.0,0.0
12:07:25,728919.0,0.0,0.0
12:07:25,728819.0,0.0,0.0
12:07:25,728761.0,0.0,0.0
12:07:25,728686.0,0.0,0.0
12:07:25,728509.0,0.0,0.0
12:07:25,728491.0,0.0,0.0
12:07:25,728312.0,0.0,0.0
12:07:25,728256.0,0.0,0.0
12:07:25,728258.0,0.0,0.0
12:07:25,728098.0,0.0,0.0
12:07:25,728124.0,0.0,0.0
12:07:25,728024.0,0.0,0.0
12:07:25,727984.0,0.0,0.0
12:07:25,727933.0,0.0,0.0
12:07:25,727713.0,0.0,0.0
12:07:25,727749.0,0.0,0.0
12:07:25,727681.0,0.0,0.0
12:07:25,727688.0,0.0,0.0
12:07:25,727703.0,0.0,0.0
12:07:25,727624.0,0.0,0.0
12:07:25,727783.0,0.0,0.0
12:07:25,727770.0,0.0,0.0
12:07:25,727699.0,0.0,0.0
12:07:25,727715.0,0.0,0.0
12:07:25,727674.0,0.0,0.0
