TimeStramp,ECG,SpO2,Respiration
09:51:08,289.814,0.0,0.0
09:51:08,295.616,0.0,0.0
09:51:08,334.885,0.0,0.0
09:51:08,265.696,0.0,0.0
09:51:08,338.734,0.0,0.0
09:51:08,290.424,0.0,0.0
09:51:08,296.801,0.0,0.0
09:51:08,335.834,0.0,0.0
09:51:08,267.536,0.0,0.0
09:51:08,341.032,0.0,0.0
09:51:08,292.156,0.0,0.0
09:51:09,299.107,0.0,0.0
09:51:09,337.124,0.0,0.0
09:51:09,268.503,0.0,0.0
09:51:09,341.595,0.0,0.0
09:51:09,291.917,0.0,0.0
09:51:09,299.403,0.0,0.0
09:51:09,337.291,0.0,0.0
09:51:09,269.033,0.0,0.0
09:51:09,342.153,0.0,0.0
09:51:09,292.228,0.0,0.0
09:51:09,300.394,0.0,0.0
09:51:09,337.479,0.0,0.0
09:51:09,269.615,0.0,0.0
09:51:09,342.907,0.0,0.0
09:51:09,292.196,0.0,0.0
09:51:09,300.748,0.0,0.0
09:51:09,337.604,0.0,0.0
09:51:09,269.648,0.0,0.0
09:51:09,342.738,0.0,0.0
09:51:09,290.829,0.0,0.0
09:51:09,299.35,0.0,0.0
09:51:09,334.746,0.0,0.0
09:51:09,266.257,0.0,0.0
09:51:09,339.344,0.0,0.0
09:51:09,287.723,0.0,0.0
09:51:09,297.737,0.0,0.0
09:51:09,333.087,0.0,0.0
09:51:09,265.469,0.0,0.0
09:51:09,338.649,0.0,0.0
09:51:09,286.143,0.0,0.0
09:51:09,296.198,0.0,0.0
09:51:09,330.394,0.0,0.0
09:51:09,263.518,0.0,0.0
09:51:09,337.721,0.0,0.0
09:51:09,285.501,0.0,0.0
09:51:09,296.726,0.0,0.0
09:51:09,330.861,0.0,0.0
09:51:09,264.099,0.0,0.0
09:51:09,338.053,0.0,0.0
09:51:09,285.548,0.0,0.0
09:51:09,297.958,0.0,0.0
09:51:09,332.111,0.0,0.0
09:51:09,266.061,0.0,0.0
09:51:09,340.375,0.0,0.0
09:51:09,287.443,0.0,0.0
09:51:09,300.243,0.0,0.0
09:51:09,333.41,0.0,0.0
09:51:09,265.849,0.0,0.0
09:51:09,337.038,0.0,0.0
09:51:09,279.88,0.0,0.0
09:51:09,295.374,0.0,0.0
09:51:09,338.406,0.0,0.0
09:51:09,276.455,0.0,0.0
09:51:09,353.234,0.0,0.0
09:51:09,298.219,0.0,0.0
09:51:09,307.153,0.0,0.0
09:51:09,335.992,0.0,0.0
09:51:09,268.661,0.0,0.0
09:51:09,342.175,0.0,0.0
09:51:09,287.069,0.0,0.0
09:51:09,301.054,0.0,0.0
09:51:09,332.39,0.0,0.0
09:51:09,266.778,0.0,0.0
09:51:09,341.13,0.0,0.0
09:51:09,285.801,0.0,0.0
09:51:09,300.336,0.0,0.0
09:51:09,330.994,0.0,0.0
09:51:09,265.36,0.0,0.0
09:51:09,339.715,0.0,0.0
09:51:09,283.754,0.0,0.0
09:51:09,298.684,0.0,0.0
09:51:09,328.723,0.0,0.0
09:51:09,263.273,0.0,0.0
09:51:09,337.704,0.0,0.0
09:51:09,281.464,0.0,0.0
09:51:09,297.347,0.0,0.0
09:51:09,326.919,0.0,0.0
09:51:09,261.853,0.0,0.0
09:51:09,336.489,0.0,0.0
09:51:09,280.019,0.0,0.0
09:51:09,296.688,0.0,0.0
09:51:09,326.261,0.0,0.0
09:51:09,262.324,0.0,0.0
09:51:09,337.938,0.0,0.0
09:51:09,281.931,0.0,0.0
09:51:09,299.814,0.0,0.0
09:51:09,329.196,0.0,0.0
09:51:09,265.54,0.0,0.0
09:51:09,340.988,0.0,0.0
09:51:09,284.042,0.0,0.0
09:51:09,301.989,0.0,0.0
09:51:09,330.359,0.0,0.0
09:51:09,266.315,0.0,0.0
09:51:09,341.48,0.0,0.0
09:51:09,283.888,0.0,0.0
09:51:09,302.147,0.0,0.0
09:51:09,329.898,0.0,0.0
09:51:09,266.276,0.0,0.0
09:51:09,341.541,0.0,0.0
09:51:09,283.468,0.0,0.0
09:51:09,302.418,0.0,0.0
09:51:09,329.769,0.0,0.0
09:51:09,266.324,0.0,0.0
09:51:09,341.476,0.0,0.0
09:51:09,283.089,0.0,0.0
09:51:09,302.517,0.0,0.0
09:51:09,328.968,0.0,0.0
09:51:09,265.715,0.0,0.0
09:51:09,340.843,0.0,0.0
09:51:09,282.264,0.0,0.0
09:51:09,303.245,0.0,0.0
09:51:09,329.818,0.0,0.0
09:51:09,266.894,0.0,0.0
09:51:09,342.433,0.0,0.0
09:51:09,284.266,0.0,0.0
09:51:09,305.601,0.0,0.0
09:51:09,331.466,0.0,0.0
09:51:09,269.272,0.0,0.0
09:51:09,344.272,0.0,0.0
09:51:09,284.728,0.0,0.0
09:51:09,305.776,0.0,0.0
09:51:09,330.508,0.0,0.0
09:51:09,268.554,0.0,0.0
09:51:09,343.583,0.0,0.0
09:51:09,283.808,0.0,0.0
09:51:10,305.543,0.0,0.0
09:51:10,329.76,0.0,0.0
09:51:10,268.223,0.0,0.0
09:51:10,343.691,0.0,0.0
09:51:10,284.023,0.0,0.0
09:51:10,307.143,0.0,0.0
09:51:10,331.596,0.0,0.0
09:51:10,270.867,0.0,0.0
09:51:10,346.133,0.0,0.0
09:51:10,285.633,0.0,0.0
09:51:10,308.394,0.0,0.0
09:51:10,331.391,0.0,0.0
09:51:10,270.504,0.0,0.0
09:51:10,345.654,0.0,0.0
09:51:10,284.865,0.0,0.0
09:51:10,308.659,0.0,0.0
09:51:10,331.5,0.0,0.0
09:51:10,271.118,0.0,0.0
09:51:10,346.285,0.0,0.0
09:51:10,285.065,0.0,0.0
09:51:10,309.113,0.0,0.0
09:51:10,331.145,0.0,0.0
09:51:10,270.24,0.0,0.0
09:51:10,342.77,0.0,0.0
09:51:10,277.954,0.0,0.0
09:51:10,301.118,0.0,0.0
09:51:10,331.686,0.0,0.0
09:51:10,278.714,0.0,0.0
09:51:10,355.953,0.0,0.0
09:51:10,294.953,0.0,0.0
09:51:10,315.823,0.0,0.0
09:51:10,333.036,0.0,0.0
09:51:10,271.833,0.0,0.0
09:51:10,345.684,0.0,0.0
09:51:10,283.222,0.0,0.0
09:51:10,308.836,0.0,0.0
09:51:10,329.021,0.0,0.0
09:51:10,270.102,0.0,0.0
09:51:10,345.197,0.0,0.0
09:51:10,282.908,0.0,0.0
09:51:10,309.373,0.0,0.0
09:51:10,329.415,0.0,0.0
09:51:10,270.769,0.0,0.0
09:51:10,345.316,0.0,0.0
09:51:10,282.534,0.0,0.0
09:51:10,309.226,0.0,0.0
09:51:10,328.036,0.0,0.0
09:51:10,269.226,0.0,0.0
09:51:10,343.455,0.0,0.0
09:51:10,280.11,0.0,0.0
09:51:10,306.825,0.0,0.0
09:51:10,324.716,0.0,0.0
09:51:10,266.507,0.0,0.0
09:51:10,341.668,0.0,0.0
09:51:10,279.69,0.0,0.0
09:51:10,308.534,0.0,0.0
09:51:10,327.168,0.0,0.0
09:51:10,270.694,0.0,0.0
09:51:10,346.961,0.0,0.0
09:51:10,284.909,0.0,0.0
09:51:10,314.796,0.0,0.0
09:51:10,333.38,0.0,0.0
09:51:10,276.894,0.0,0.0
09:51:10,352.569,0.0,0.0
09:51:10,288.818,0.0,0.0
09:51:10,317.868,0.0,0.0
09:51:10,334.941,0.0,0.0
09:51:10,277.792,0.0,0.0
09:51:10,352.607,0.0,0.0
09:51:10,288.039,0.0,0.0
09:51:10,317.233,0.0,0.0
09:51:10,333.538,0.0,0.0
09:51:10,276.568,0.0,0.0
09:51:10,351.296,0.0,0.0
09:51:10,286.253,0.0,0.0
09:51:10,315.86,0.0,0.0
09:51:10,331.67,0.0,0.0
09:51:10,275.017,0.0,0.0
09:51:10,349.728,0.0,0.0
09:51:10,284.463,0.0,0.0
09:51:10,314.745,0.0,0.0
09:51:10,330.213,0.0,0.0
09:51:10,274.251,0.0,0.0
09:51:10,349.282,0.0,0.0
09:51:10,284.249,0.0,0.0
09:51:10,315.424,0.0,0.0
09:51:10,330.275,0.0,0.0
09:51:10,274.144,0.0,0.0
09:51:10,348.301,0.0,0.0
09:51:10,282.218,0.0,0.0
09:51:10,313.496,0.0,0.0
09:51:10,328.408,0.0,0.0
09:51:10,274.24,0.0,0.0
09:51:10,350.29,0.0,0.0
09:51:10,287.185,0.0,0.0
09:51:10,323.366,0.0,0.0
09:51:10,339.566,0.0,0.0
09:51:10,286.171,0.0,0.0
09:51:10,361.419,0.0,0.0
09:51:10,295.48,0.0,0.0
09:51:10,328.208,0.0,0.0
09:51:10,342.034,0.0,0.0
09:51:10,288.574,0.0,0.0
09:51:10,363.775,0.0,0.0
09:51:10,298.109,0.0,0.0
09:51:10,332.184,0.0,0.0
09:51:10,345.671,0.0,0.0
09:51:10,291.808,0.0,0.0
09:51:10,365.086,0.0,0.0
09:51:10,294.977,0.0,0.0
09:51:10,323.691,0.0,0.0
09:51:10,330.816,0.0,0.0
09:51:10,272.768,0.0,0.0
09:51:10,343.562,0.0,0.0
09:51:10,273.067,0.0,0.0
09:51:10,304.433,0.0,0.0
09:51:10,313.426,0.0,0.0
09:51:10,257.741,0.0,0.0
09:51:10,330.062,0.0,0.0
09:51:10,261.696,0.0,0.0
09:51:10,295.97,0.0,0.0
09:51:10,307.074,0.0,0.0
09:51:10,253.704,0.0,0.0
09:51:10,327.973,0.0,0.0
09:51:10,260.284,0.0,0.0
09:51:11,295.994,0.0,0.0
09:51:11,307.143,0.0,0.0
09:51:11,255.096,0.0,0.0
09:51:11,330.051,0.0,0.0
09:51:11,262.859,0.0,0.0
09:51:11,299.422,0.0,0.0
09:51:11,310.228,0.0,0.0
09:51:11,257.65,0.0,0.0
09:51:11,329.204,0.0,0.0
09:51:11,256.598,0.0,0.0
09:51:11,291.266,0.0,0.0
09:51:11,312.0,0.0,0.0
09:51:11,267.454,0.0,0.0
09:51:11,344.016,0.0,0.0
09:51:11,275.65,0.0,0.0
09:51:11,305.803,0.0,0.0
09:51:11,310.154,0.0,0.0
09:51:11,256.869,0.0,0.0
09:51:11,329.288,0.0,0.0
09:51:11,260.384,0.0,0.0
09:51:11,297.141,0.0,0.0
09:51:11,304.837,0.0,0.0
09:51:11,253.496,0.0,0.0
09:51:11,326.253,0.0,0.0
09:51:11,256.741,0.0,0.0
09:51:11,293.21,0.0,0.0
09:51:11,299.554,0.0,0.0
09:51:11,247.741,0.0,0.0
09:51:11,319.442,0.0,0.0
09:51:11,248.295,0.0,0.0
09:51:11,284.122,0.0,0.0
09:51:11,289.09,0.0,0.0
09:51:11,237.142,0.0,0.0
09:51:11,307.173,0.0,0.0
09:51:11,233.469,0.0,0.0
09:51:11,274.142,0.0,0.0
09:51:11,286.315,0.0,0.0
09:51:11,242.245,0.0,0.0
09:51:11,320.313,0.0,0.0
09:51:11,254.193,0.0,0.0
09:51:11,294.878,0.0,0.0
09:51:11,301.236,0.0,0.0
09:51:11,251.443,0.0,0.0
09:51:11,321.606,0.0,0.0
09:51:11,249.087,0.0,0.0
09:51:11,290.42,0.0,0.0
09:51:11,299.703,0.0,0.0
09:51:11,255.803,0.0,0.0
09:51:11,333.111,0.0,0.0
09:51:11,266.764,0.0,0.0
09:51:11,310.043,0.0,0.0
09:51:11,318.518,0.0,0.0
09:51:11,274.372,0.0,0.0
09:51:11,351.385,0.0,0.0
09:51:11,282.439,0.0,0.0
09:51:11,321.945,0.0,0.0
09:51:11,325.029,0.0,0.0
09:51:11,276.597,0.0,0.0
09:51:11,348.187,0.0,0.0
09:51:11,276.882,0.0,0.0
09:51:11,317.279,0.0,0.0
09:51:11,319.813,0.0,0.0
09:51:11,271.315,0.0,0.0
09:51:11,342.959,0.0,0.0
09:51:11,272.661,0.0,0.0
09:51:11,313.963,0.0,0.0
09:51:11,317.464,0.0,0.0
09:51:11,272.638,0.0,0.0
09:51:11,346.737,0.0,0.0
09:51:11,278.929,0.0,0.0
09:51:11,322.201,0.0,0.0
09:51:11,325.378,0.0,0.0
09:51:11,280.523,0.0,0.0
09:51:11,354.176,0.0,0.0
09:51:11,283.768,0.0,0.0
09:51:11,325.732,0.0,0.0
09:51:11,326.824,0.0,0.0
09:51:11,281.469,0.0,0.0
09:51:11,354.276,0.0,0.0
09:51:11,283.353,0.0,0.0
09:51:11,326.735,0.0,0.0
09:51:11,327.583,0.0,0.0
09:51:11,280.903,0.0,0.0
09:51:11,352.203,0.0,0.0
09:51:11,279.182,0.0,0.0
09:51:11,321.344,0.0,0.0
09:51:11,319.389,0.0,0.0
09:51:11,270.851,0.0,0.0
09:51:11,337.954,0.0,0.0
09:51:11,258.398,0.0,0.0
09:51:11,293.146,0.0,0.0
09:51:11,287.1,0.0,0.0
09:51:11,235.975,0.0,0.0
09:51:11,299.875,0.0,0.0
09:51:11,221.783,0.0,0.0
09:51:11,263.006,0.0,0.0
09:51:11,263.045,0.0,0.0
09:51:11,219.94,0.0,0.0
09:51:11,293.193,0.0,0.0
09:51:11,222.905,0.0,0.0
09:51:11,268.835,0.0,0.0
09:51:11,267.629,0.0,0.0
09:51:11,225.058,0.0,0.0
09:51:11,296.969,0.0,0.0
09:51:11,226.246,0.0,0.0
09:51:11,271.397,0.0,0.0
09:51:11,269.426,0.0,0.0
09:51:11,228.757,0.0,0.0
09:51:11,301.584,0.0,0.0
09:51:11,229.384,0.0,0.0
09:51:11,273.807,0.0,0.0
09:51:11,273.372,0.0,0.0
09:51:11,236.703,0.0,0.0
09:51:11,312.006,0.0,0.0
09:51:11,243.869,0.0,0.0
09:51:11,292.803,0.0,0.0
09:51:11,293.651,0.0,0.0
09:51:11,254.124,0.0,0.0
09:51:11,324.633,0.0,0.0
09:51:11,249.528,0.0,0.0
09:51:11,294.816,0.0,0.0
09:51:11,289.916,0.0,0.0
09:51:11,244.474,0.0,0.0
09:51:11,310.619,0.0,0.0
09:51:11,233.874,0.0,0.0
09:51:12,284.613,0.0,0.0
09:51:12,290.591,0.0,0.0
09:51:12,253.935,0.0,0.0
09:51:12,327.519,0.0,0.0
09:51:12,252.32,0.0,0.0
09:51:12,297.176,0.0,0.0
09:51:12,292.364,0.0,0.0
09:51:12,251.744,0.0,0.0
09:51:12,322.363,0.0,0.0
09:51:12,250.552,0.0,0.0
09:51:12,300.069,0.0,0.0
09:51:12,295.73,0.0,0.0
09:51:12,255.886,0.0,0.0
09:51:12,325.734,0.0,0.0
09:51:12,252.186,0.0,0.0
09:51:12,300.632,0.0,0.0
09:51:12,294.635,0.0,0.0
09:51:12,254.626,0.0,0.0
09:51:12,323.938,0.0,0.0
09:51:12,249.839,0.0,0.0
09:51:12,299.096,0.0,0.0
09:51:12,292.808,0.0,0.0
09:51:12,253.581,0.0,0.0
09:51:12,323.754,0.0,0.0
09:51:12,250.35,0.0,0.0
09:51:12,300.517,0.0,0.0
09:51:12,294.198,0.0,0.0
09:51:12,255.974,0.0,0.0
09:51:12,325.996,0.0,0.0
09:51:12,252.584,0.0,0.0
09:51:12,303.167,0.0,0.0
09:51:12,296.226,0.0,0.0
09:51:12,258.498,0.0,0.0
09:51:12,328.199,0.0,0.0
09:51:12,254.821,0.0,0.0
09:51:12,306.804,0.0,0.0
09:51:12,299.254,0.0,0.0
09:51:12,261.249,0.0,0.0
09:51:12,330.1,0.0,0.0
09:51:12,255.964,0.0,0.0
09:51:12,306.674,0.0,0.0
09:51:12,297.499,0.0,0.0
09:51:12,259.729,0.0,0.0
09:51:12,327.484,0.0,0.0
09:51:12,253.208,0.0,0.0
09:51:12,303.889,0.0,0.0
09:51:12,293.634,0.0,0.0
09:51:12,256.648,0.0,0.0
09:51:12,323.802,0.0,0.0
09:51:12,248.991,0.0,0.0
09:51:12,299.27,0.0,0.0
09:51:12,287.662,0.0,0.0
09:51:12,250.289,0.0,0.0
09:51:12,316.228,0.0,0.0
09:51:12,240.48,0.0,0.0
09:51:12,291.783,0.0,0.0
09:51:12,280.971,0.0,0.0
09:51:12,246.746,0.0,0.0
09:51:12,318.059,0.0,0.0
09:51:12,249.594,0.0,0.0
09:51:12,309.672,0.0,0.0
09:51:12,307.371,0.0,0.0
09:51:12,279.748,0.0,0.0
09:51:12,348.8,0.0,0.0
09:51:12,276.318,0.0,0.0
09:51:12,330.119,0.0,0.0
09:51:12,316.525,0.0,0.0
09:51:12,278.316,0.0,0.0
09:51:12,339.465,0.0,0.0
09:51:12,255.899,0.0,0.0
09:51:12,306.486,0.0,0.0
09:51:12,297.946,0.0,0.0
09:51:12,267.278,0.0,0.0
09:51:12,338.035,0.0,0.0
09:51:12,269.143,0.0,0.0
09:51:12,329.899,0.0,0.0
09:51:12,320.574,0.0,0.0
09:51:12,284.244,0.0,0.0
09:51:12,351.174,0.0,0.0
09:51:12,282.271,0.0,0.0
09:51:12,341.713,0.0,0.0
09:51:12,330.034,0.0,0.0
09:51:12,307.939,0.0,0.0
09:51:12,377.106,0.0,0.0
09:51:12,293.632,0.0,0.0
09:51:12,332.671,0.0,0.0
09:51:12,314.028,0.0,0.0
09:51:12,286.283,0.0,0.0
09:51:12,358.041,0.0,0.0
09:51:12,287.097,0.0,0.0
09:51:12,341.799,0.0,0.0
09:51:12,326.192,0.0,0.0
09:51:12,295.754,0.0,0.0
09:51:12,361.438,0.0,0.0
09:51:12,286.539,0.0,0.0
09:51:12,345.03,0.0,0.0
09:51:12,333.644,0.0,0.0
09:51:12,298.5,0.0,0.0
09:51:12,360.147,0.0,0.0
09:51:12,282.855,0.0,0.0
09:51:12,347.823,0.0,0.0
09:51:12,342.189,0.0,0.0
09:51:12,303.015,0.0,0.0
09:51:12,362.455,0.0,0.0
09:51:12,292.451,0.0,0.0
09:51:12,351.789,0.0,0.0
09:51:12,337.114,0.0,0.0
09:51:12,305.651,0.0,0.0
09:51:12,365.193,0.0,0.0
09:51:12,286.601,0.0,0.0
09:51:12,342.089,0.0,0.0
09:51:12,323.931,0.0,0.0
09:51:12,293.2,0.0,0.0
09:51:12,359.516,0.0,0.0
09:51:12,287.216,0.0,0.0
09:51:12,344.039,0.0,0.0
09:51:12,327.467,0.0,0.0
09:51:12,301.879,0.0,0.0
09:51:12,367.366,0.0,0.0
09:51:12,291.362,0.0,0.0
09:51:12,347.438,0.0,0.0
09:51:12,328.289,0.0,0.0
09:51:12,296.834,0.0,0.0
09:51:12,357.49,0.0,0.0
09:51:12,281.321,0.0,0.0
09:51:13,339.881,0.0,0.0
09:51:13,320.958,0.0,0.0
09:51:13,291.439,0.0,0.0
09:51:13,354.3,0.0,0.0
09:51:13,279.78,0.0,0.0
09:51:13,337.872,0.0,0.0
09:51:13,318.687,0.0,0.0
09:51:13,291.915,0.0,0.0
09:51:13,356.409,0.0,0.0
09:51:13,282.386,0.0,0.0
09:51:13,342.805,0.0,0.0
09:51:13,324.63,0.0,0.0
09:51:13,298.484,0.0,0.0
09:51:13,362.345,0.0,0.0
09:51:13,288.023,0.0,0.0
09:51:13,347.896,0.0,0.0
09:51:13,327.853,0.0,0.0
09:51:13,301.182,0.0,0.0
09:51:13,362.606,0.0,0.0
09:51:13,285.933,0.0,0.0
09:51:13,343.8,0.0,0.0
09:51:13,321.042,0.0,0.0
09:51:13,294.157,0.0,0.0
09:51:13,356.0,0.0,0.0
09:51:13,280.073,0.0,0.0
09:51:13,338.66,0.0,0.0
09:51:13,316.464,0.0,0.0
09:51:13,290.414,0.0,0.0
09:51:13,350.699,0.0,0.0
09:51:13,274.266,0.0,0.0
09:51:13,332.624,0.0,0.0
09:51:13,310.511,0.0,0.0
09:51:13,284.998,0.0,0.0
09:51:13,341.29,0.0,0.0
09:51:13,263.367,0.0,0.0
09:51:13,320.901,0.0,0.0
09:51:13,292.538,0.0,0.0
09:51:13,264.589,0.0,0.0
09:51:13,334.313,0.0,0.0
09:51:13,263.644,0.0,0.0
09:51:13,316.269,0.0,0.0
09:51:13,284.086,0.0,0.0
09:51:13,252.493,0.0,0.0
09:51:13,308.103,0.0,0.0
09:51:13,232.534,0.0,0.0
09:51:13,293.509,0.0,0.0
09:51:13,268.718,0.0,0.0
09:51:13,245.401,0.0,0.0
09:51:13,306.474,0.0,0.0
09:51:13,233.408,0.0,0.0
09:51:13,297.133,0.0,0.0
09:51:13,275.528,0.0,0.0
09:51:13,256.074,0.0,0.0
09:51:13,317.824,0.0,0.0
09:51:13,243.792,0.0,0.0
09:51:13,306.328,0.0,0.0
09:51:13,281.044,0.0,0.0
09:51:13,257.121,0.0,0.0
09:51:13,312.995,0.0,0.0
09:51:13,233.041,0.0,0.0
09:51:13,292.613,0.0,0.0
09:51:13,268.584,0.0,0.0
09:51:13,247.522,0.0,0.0
09:51:13,304.655,0.0,0.0
09:51:13,227.139,0.0,0.0
09:51:13,287.799,0.0,0.0
09:51:13,260.427,0.0,0.0
09:51:13,238.666,0.0,0.0
09:51:13,297.134,0.0,0.0
09:51:13,220.425,0.0,0.0
09:51:13,282.209,0.0,0.0
09:51:13,254.817,0.0,0.0
09:51:13,231.087,0.0,0.0
09:51:13,284.414,0.0,0.0
09:51:13,206.303,0.0,0.0
09:51:13,266.569,0.0,0.0
09:51:13,236.62,0.0,0.0
09:51:13,215.655,0.0,0.0
09:51:13,275.024,0.0,0.0
09:51:13,200.266,0.0,0.0
09:51:13,262.234,0.0,0.0
09:51:13,235.936,0.0,0.0
09:51:13,215.309,0.0,0.0
09:51:13,268.391,0.0,0.0
09:51:13,193.536,0.0,0.0
09:51:13,269.338,0.0,0.0
09:51:13,251.394,0.0,0.0
09:51:13,237.514,0.0,0.0
09:51:13,296.556,0.0,0.0
09:51:13,219.207,0.0,0.0
09:51:13,281.778,0.0,0.0
09:51:13,253.693,0.0,0.0
09:51:13,236.746,0.0,0.0
09:51:13,295.371,0.0,0.0
09:51:13,222.975,0.0,0.0
09:51:13,288.798,0.0,0.0
09:51:13,261.482,0.0,0.0
09:51:13,245.721,0.0,0.0
09:51:13,303.368,0.0,0.0
09:51:13,230.568,0.0,0.0
09:51:13,296.468,0.0,0.0
09:51:13,268.255,0.0,0.0
09:51:13,252.466,0.0,0.0
09:51:13,309.066,0.0,0.0
09:51:13,235.118,0.0,0.0
09:51:13,300.251,0.0,0.0
09:51:13,270.607,0.0,0.0
09:51:13,254.376,0.0,0.0
09:51:13,309.944,0.0,0.0
09:51:13,235.283,0.0,0.0
09:51:13,300.414,0.0,0.0
09:51:13,270.468,0.0,0.0
09:51:13,255.489,0.0,0.0
09:51:13,311.196,0.0,0.0
09:51:13,237.302,0.0,0.0
09:51:13,303.339,0.0,0.0
09:51:13,273.729,0.0,0.0
09:51:13,260.304,0.0,0.0
09:51:13,316.581,0.0,0.0
09:51:13,243.68,0.0,0.0
09:51:13,310.074,0.0,0.0
09:51:13,279.521,0.0,0.0
09:51:13,265.999,0.0,0.0
09:51:13,321.047,0.0,0.0
09:51:13,247.334,0.0,0.0
09:51:14,313.203,0.0,0.0
09:51:14,281.447,0.0,0.0
09:51:14,267.881,0.0,0.0
09:51:14,322.25,0.0,0.0
09:51:14,248.533,0.0,0.0
09:51:14,314.661,0.0,0.0
09:51:14,282.486,0.0,0.0
09:51:14,269.413,0.0,0.0
09:51:14,323.143,0.0,0.0
09:51:14,249.318,0.0,0.0
09:51:14,315.564,0.0,0.0
09:51:14,282.592,0.0,0.0
09:51:14,269.909,0.0,0.0
09:51:14,323.178,0.0,0.0
09:51:14,249.597,0.0,0.0
09:51:14,316.143,0.0,0.0
09:51:14,282.848,0.0,0.0
09:51:14,271.047,0.0,0.0
09:51:14,323.993,0.0,0.0
09:51:14,250.696,0.0,0.0
09:51:14,317.616,0.0,0.0
09:51:14,284.004,0.0,0.0
09:51:14,272.856,0.0,0.0
09:51:14,325.273,0.0,0.0
09:51:14,252.254,0.0,0.0
09:51:14,319.199,0.0,0.0
09:51:14,285.05,0.0,0.0
09:51:14,274.611,0.0,0.0
09:51:14,326.474,0.0,0.0
09:51:14,253.716,0.0,0.0
09:51:14,320.876,0.0,0.0
09:51:14,286.339,0.0,0.0
09:51:14,276.569,0.0,0.0
09:51:14,328.063,0.0,0.0
09:51:14,255.476,0.0,0.0
09:51:14,322.861,0.0,0.0
09:51:14,287.768,0.0,0.0
09:51:14,278.376,0.0,0.0
09:51:14,329.293,0.0,0.0
09:51:14,256.578,0.0,0.0
09:51:14,324.092,0.0,0.0
09:51:14,288.389,0.0,0.0
09:51:14,279.333,0.0,0.0
09:51:14,329.89,0.0,0.0
09:51:14,257.039,0.0,0.0
09:51:14,324.488,0.0,0.0
09:51:14,288.217,0.0,0.0
09:51:14,279.781,0.0,0.0
09:51:14,329.741,0.0,0.0
09:51:14,257.068,0.0,0.0
09:51:14,325.048,0.0,0.0
09:51:14,288.361,0.0,0.0
09:51:14,280.401,0.0,0.0
09:51:14,330.229,0.0,0.0
09:51:14,258.008,0.0,0.0
09:51:14,326.172,0.0,0.0
09:51:14,289.097,0.0,0.0
09:51:14,281.92,0.0,0.0
09:51:14,331.398,0.0,0.0
09:51:14,259.164,0.0,0.0
09:51:14,327.656,0.0,0.0
09:51:14,290.082,0.0,0.0
09:51:14,282.952,0.0,0.0
09:51:14,329.686,0.0,0.0
09:51:14,253.74,0.0,0.0
09:51:14,318.646,0.0,0.0
09:51:14,286.962,0.0,0.0
09:51:14,291.072,0.0,0.0
09:51:14,342.701,0.0,0.0
09:51:14,271.905,0.0,0.0
09:51:14,336.584,0.0,0.0
09:51:14,293.063,0.0,0.0
09:51:14,284.975,0.0,0.0
09:51:14,331.794,0.0,0.0
09:51:14,258.949,0.0,0.0
09:51:14,327.607,0.0,0.0
09:51:14,288.204,0.0,0.0
09:51:14,282.632,0.0,0.0
09:51:14,330.11,0.0,0.0
09:51:14,257.943,0.0,0.0
09:51:14,326.922,0.0,0.0
09:51:14,287.074,0.0,0.0
09:51:14,282.202,0.0,0.0
09:51:14,329.191,0.0,0.0
09:51:14,256.875,0.0,0.0
09:51:14,325.939,0.0,0.0
09:51:14,285.991,0.0,0.0
09:51:14,281.236,0.0,0.0
09:51:14,326.818,0.0,0.0
09:51:14,255.315,0.0,0.0
09:51:14,323.446,0.0,0.0
09:51:14,282.269,0.0,0.0
09:51:14,278.917,0.0,0.0
09:51:14,323.823,0.0,0.0
09:51:14,252.234,0.0,0.0
09:51:14,322.154,0.0,0.0
09:51:14,281.29,0.0,0.0
09:51:14,278.857,0.0,0.0
09:51:14,325.414,0.0,0.0
09:51:14,255.56,0.0,0.0
09:51:14,326.456,0.0,0.0
09:51:14,286.076,0.0,0.0
09:51:14,284.722,0.0,0.0
09:51:14,330.381,0.0,0.0
09:51:14,259.576,0.0,0.0
09:51:14,330.212,0.0,0.0
09:51:14,288.853,0.0,0.0
09:51:14,287.579,0.0,0.0
09:51:14,332.911,0.0,0.0
09:51:14,261.495,0.0,0.0
09:51:14,332.287,0.0,0.0
09:51:14,290.096,0.0,0.0
09:51:14,289.807,0.0,0.0
09:51:14,333.868,0.0,0.0
09:51:14,263.026,0.0,0.0
09:51:14,333.776,0.0,0.0
09:51:14,290.923,0.0,0.0
09:51:14,291.059,0.0,0.0
09:51:14,338.222,0.0,0.0
09:51:14,271.563,0.0,0.0
09:51:14,341.601,0.0,0.0
09:51:14,290.376,0.0,0.0
09:51:14,285.22,0.0,0.0
09:51:14,326.073,0.0,0.0
09:51:14,253.036,0.0,0.0
09:51:15,321.848,0.0,0.0
09:51:15,276.954,0.0,0.0
09:51:15,277.22,0.0,0.0
09:51:15,319.064,0.0,0.0
09:51:15,247.983,0.0,0.0
09:51:15,318.912,0.0,0.0
09:51:15,274.631,0.0,0.0
09:51:15,276.578,0.0,0.0
09:51:15,320.087,0.0,0.0
09:51:15,252.309,0.0,0.0
09:51:15,323.001,0.0,0.0
09:51:15,277.978,0.0,0.0
09:51:15,279.533,0.0,0.0
09:51:15,319.416,0.0,0.0
09:51:15,249.921,0.0,0.0
09:51:15,321.121,0.0,0.0
09:51:15,277.946,0.0,0.0
09:51:15,281.771,0.0,0.0
09:51:15,322.615,0.0,0.0
09:51:15,254.813,0.0,0.0
09:51:15,325.221,0.0,0.0
09:51:15,280.569,0.0,0.0
09:51:15,284.868,0.0,0.0
09:51:15,324.868,0.0,0.0
09:51:15,257.484,0.0,0.0
09:51:15,329.236,0.0,0.0
09:51:15,284.518,0.0,0.0
09:51:15,290.058,0.0,0.0
09:51:15,330.838,0.0,0.0
09:51:15,263.651,0.0,0.0
09:51:15,335.104,0.0,0.0
09:51:15,289.207,0.0,0.0
09:51:15,293.208,0.0,0.0
09:51:15,331.409,0.0,0.0
09:51:15,262.979,0.0,0.0
09:51:15,332.781,0.0,0.0
09:51:15,285.101,0.0,0.0
09:51:15,288.917,0.0,0.0
09:51:15,325.742,0.0,0.0
09:51:15,257.234,0.0,0.0
09:51:15,327.232,0.0,0.0
09:51:15,279.91,0.0,0.0
09:51:15,285.513,0.0,0.0
09:51:15,323.743,0.0,0.0
09:51:15,257.099,0.0,0.0
09:51:15,328.348,0.0,0.0
09:51:15,280.178,0.0,0.0
09:51:15,283.764,0.0,0.0
09:51:15,317.148,0.0,0.0
09:51:15,252.554,0.0,0.0
09:51:15,332.845,0.0,0.0
09:51:15,289.443,0.0,0.0
09:51:15,299.071,0.0,0.0
09:51:15,333.166,0.0,0.0
09:51:15,261.901,0.0,0.0
09:51:15,328.741,0.0,0.0
09:51:15,278.611,0.0,0.0
09:51:15,284.926,0.0,0.0
09:51:15,320.668,0.0,0.0
09:51:15,255.252,0.0,0.0
09:51:15,326.894,0.0,0.0
09:51:15,280.688,0.0,0.0
09:51:15,291.541,0.0,0.0
09:51:15,328.412,0.0,0.0
09:51:15,261.276,0.0,0.0
09:51:15,330.877,0.0,0.0
09:51:15,281.013,0.0,0.0
09:51:15,288.927,0.0,0.0
09:51:15,325.147,0.0,0.0
09:51:15,261.544,0.0,0.0
09:51:15,335.486,0.0,0.0
09:51:15,292.046,0.0,0.0
09:51:15,309.393,0.0,0.0
09:51:15,351.519,0.0,0.0
09:51:15,286.141,0.0,0.0
09:51:15,351.149,0.0,0.0
09:51:15,294.523,0.0,0.0
09:51:15,297.373,0.0,0.0
09:51:15,326.643,0.0,0.0
09:51:15,257.324,0.0,0.0
09:51:15,327.311,0.0,0.0
09:51:15,277.554,0.0,0.0
09:51:15,288.399,0.0,0.0
09:51:15,324.266,0.0,0.0
09:51:15,259.683,0.0,0.0
09:51:15,330.419,0.0,0.0
09:51:15,278.877,0.0,0.0
09:51:15,288.329,0.0,0.0
09:51:15,321.118,0.0,0.0
09:51:15,254.235,0.0,0.0
09:51:15,325.81,0.0,0.0
09:51:15,275.652,0.0,0.0
09:51:15,285.812,0.0,0.0
09:51:15,317.981,0.0,0.0
09:51:15,251.884,0.0,0.0
09:51:15,322.102,0.0,0.0
09:51:15,270.773,0.0,0.0
09:51:15,281.204,0.0,0.0
09:51:15,312.286,0.0,0.0
09:51:15,247.303,0.0,0.0
09:51:15,317.576,0.0,0.0
09:51:15,265.534,0.0,0.0
09:51:15,276.265,0.0,0.0
09:51:15,306.808,0.0,0.0
09:51:15,242.94,0.0,0.0
09:51:15,312.74,0.0,0.0
09:51:15,260.799,0.0,0.0
09:51:15,272.273,0.0,0.0
09:51:15,301.23,0.0,0.0
09:51:15,235.656,0.0,0.0
09:51:15,306.078,0.0,0.0
09:51:15,254.598,0.0,0.0
09:51:15,267.608,0.0,0.0
09:51:15,297.933,0.0,0.0
09:51:15,235.083,0.0,0.0
09:51:15,307.768,0.0,0.0
09:51:15,254.924,0.0,0.0
09:51:15,267.951,0.0,0.0
09:51:15,299.894,0.0,0.0
09:51:15,237.598,0.0,0.0
09:51:15,311.601,0.0,0.0
09:51:15,260.913,0.0,0.0
09:51:15,276.329,0.0,0.0
09:51:15,308.614,0.0,0.0
09:51:15,245.849,0.0,0.0
09:51:16,318.816,0.0,0.0
09:51:16,266.22,0.0,0.0
09:51:16,280.606,0.0,0.0
09:51:16,311.073,0.0,0.0
09:51:16,247.784,0.0,0.0
09:51:16,320.044,0.0,0.0
09:51:16,266.623,0.0,0.0
09:51:16,280.883,0.0,0.0
09:51:16,310.115,0.0,0.0
09:51:16,246.682,0.0,0.0
09:51:16,318.357,0.0,0.0
09:51:16,264.951,0.0,0.0
09:51:16,281.149,0.0,0.0
09:51:16,312.811,0.0,0.0
09:51:16,254.314,0.0,0.0
09:51:16,328.733,0.0,0.0
09:51:16,276.558,0.0,0.0
09:51:16,294.461,0.0,0.0
09:51:16,324.205,0.0,0.0
09:51:16,262.72,0.0,0.0
09:51:16,334.931,0.0,0.0
09:51:16,280.239,0.0,0.0
09:51:16,296.273,0.0,0.0
09:51:16,322.065,0.0,0.0
09:51:16,255.093,0.0,0.0
09:51:16,321.697,0.0,0.0
09:51:16,261.543,0.0,0.0
09:51:16,273.369,0.0,0.0
09:51:16,296.233,0.0,0.0
09:51:16,232.143,0.0,0.0
09:51:16,316.91,0.0,0.0
09:51:16,273.391,0.0,0.0
09:51:16,296.707,0.0,0.0
09:51:16,326.503,0.0,0.0
09:51:16,258.824,0.0,0.0
09:51:16,325.584,0.0,0.0
09:51:16,267.132,0.0,0.0
09:51:16,282.793,0.0,0.0
09:51:16,307.799,0.0,0.0
09:51:16,244.703,0.0,0.0
09:51:16,316.978,0.0,0.0
09:51:16,261.408,0.0,0.0
09:51:16,279.764,0.0,0.0
09:51:16,306.363,0.0,0.0
09:51:16,245.047,0.0,0.0
09:51:16,318.093,0.0,0.0
09:51:16,262.418,0.0,0.0
09:51:16,281.578,0.0,0.0
09:51:16,308.505,0.0,0.0
09:51:16,248.308,0.0,0.0
09:51:16,321.596,0.0,0.0
09:51:16,265.857,0.0,0.0
09:51:16,284.937,0.0,0.0
09:51:16,309.991,0.0,0.0
09:51:16,248.928,0.0,0.0
09:51:16,321.088,0.0,0.0
09:51:16,264.056,0.0,0.0
09:51:16,283.456,0.0,0.0
09:51:16,308.262,0.0,0.0
09:51:16,247.615,0.0,0.0
09:51:16,320.139,0.0,0.0
09:51:16,262.974,0.0,0.0
09:51:16,283.119,0.0,0.0
09:51:16,308.062,0.0,0.0
09:51:16,248.192,0.0,0.0
09:51:16,321.298,0.0,0.0
09:51:16,264.608,0.0,0.0
09:51:16,285.469,0.0,0.0
09:51:16,309.513,0.0,0.0
09:51:16,248.949,0.0,0.0
09:51:16,320.276,0.0,0.0
09:51:16,261.503,0.0,0.0
09:51:16,281.858,0.0,0.0
09:51:16,304.809,0.0,0.0
09:51:16,244.539,0.0,0.0
09:51:16,316.831,0.0,0.0
09:51:16,258.921,0.0,0.0
09:51:16,280.472,0.0,0.0
09:51:16,303.702,0.0,0.0
09:51:16,244.708,0.0,0.0
09:51:16,318.01,0.0,0.0
09:51:16,260.756,0.0,0.0
09:51:16,284.254,0.0,0.0
09:51:16,308.471,0.0,0.0
09:51:16,251.51,0.0,0.0
09:51:16,326.336,0.0,0.0
09:51:16,269.712,0.0,0.0
09:51:16,294.082,0.0,0.0
09:51:16,318.177,0.0,0.0
09:51:16,261.866,0.0,0.0
09:51:16,336.665,0.0,0.0
09:51:16,279.717,0.0,0.0
09:51:16,303.991,0.0,0.0
09:51:16,326.233,0.0,0.0
09:51:16,268.801,0.0,0.0
09:51:16,342.586,0.0,0.0
09:51:16,284.356,0.0,0.0
09:51:16,307.325,0.0,0.0
09:51:16,326.344,0.0,0.0
09:51:16,266.048,0.0,0.0
09:51:16,336.683,0.0,0.0
09:51:16,274.973,0.0,0.0
09:51:16,297.186,0.0,0.0
09:51:16,316.657,0.0,0.0
09:51:16,258.255,0.0,0.0
09:51:16,330.623,0.0,0.0
09:51:16,270.781,0.0,0.0
09:51:16,295.583,0.0,0.0
09:51:16,316.069,0.0,0.0
09:51:16,258.859,0.0,0.0
09:51:16,331.725,0.0,0.0
09:51:16,271.851,0.0,0.0
09:51:16,297.412,0.0,0.0
09:51:16,317.593,0.0,0.0
09:51:16,261.094,0.0,0.0
09:51:16,334.587,0.0,0.0
09:51:16,275.002,0.0,0.0
09:51:16,301.488,0.0,0.0
09:51:16,321.558,0.0,0.0
09:51:16,265.754,0.0,0.0
09:51:16,339.383,0.0,0.0
09:51:16,279.739,0.0,0.0
09:51:16,306.55,0.0,0.0
09:51:16,325.574,0.0,0.0
09:51:16,269.153,0.0,0.0
09:51:17,341.588,0.0,0.0
09:51:17,280.26,0.0,0.0
09:51:17,306.164,0.0,0.0
09:51:17,321.939,0.0,0.0
09:51:17,262.259,0.0,0.0
09:51:17,330.531,0.0,0.0
09:51:17,271.724,0.0,0.0
09:51:17,307.726,0.0,0.0
09:51:17,328.118,0.0,0.0
09:51:17,274.427,0.0,0.0
09:51:17,344.393,0.0,0.0
09:51:17,277.773,0.0,0.0
09:51:17,302.598,0.0,0.0
09:51:17,318.018,0.0,0.0
09:51:17,261.729,0.0,0.0
09:51:17,333.694,0.0,0.0
09:51:17,271.64,0.0,0.0
09:51:17,299.416,0.0,0.0
09:51:17,316.064,0.0,0.0
09:51:17,261.45,0.0,0.0
09:51:17,333.917,0.0,0.0
09:51:17,271.905,0.0,0.0
09:51:17,300.653,0.0,0.0
09:51:17,316.871,0.0,0.0
09:51:17,262.673,0.0,0.0
09:51:17,335.369,0.0,0.0
09:51:17,273.308,0.0,0.0
09:51:17,302.197,0.0,0.0
09:51:17,317.398,0.0,0.0
09:51:17,262.881,0.0,0.0
09:51:17,334.411,0.0,0.0
09:51:17,271.117,0.0,0.0
09:51:17,299.828,0.0,0.0
09:51:17,313.841,0.0,0.0
09:51:17,259.478,0.0,0.0
09:51:17,331.151,0.0,0.0
09:51:17,268.18,0.0,0.0
09:51:17,298.161,0.0,0.0
09:51:17,312.686,0.0,0.0
09:51:17,259.517,0.0,0.0
09:51:17,331.83,0.0,0.0
09:51:17,269.382,0.0,0.0
09:51:17,300.248,0.0,0.0
09:51:17,314.506,0.0,0.0
09:51:17,262.006,0.0,0.0
09:51:17,334.266,0.0,0.0
09:51:17,271.211,0.0,0.0
09:51:17,302.611,0.0,0.0
09:51:17,316.347,0.0,0.0
09:51:17,263.834,0.0,0.0
09:51:17,335.984,0.0,0.0
09:51:17,272.703,0.0,0.0
09:51:17,304.383,0.0,0.0
09:51:17,317.049,0.0,0.0
09:51:17,264.219,0.0,0.0
09:51:17,336.005,0.0,0.0
09:51:17,271.769,0.0,0.0
09:51:17,303.582,0.0,0.0
09:51:17,316.948,0.0,0.0
09:51:17,264.659,0.0,0.0
09:51:17,337.263,0.0,0.0
09:51:17,273.746,0.0,0.0
09:51:17,305.364,0.0,0.0
09:51:17,317.396,0.0,0.0
09:51:17,266.553,0.0,0.0
09:51:17,337.886,0.0,0.0
09:51:17,274.013,0.0,0.0
09:51:17,307.619,0.0,0.0
09:51:17,318.348,0.0,0.0
09:51:17,266.809,0.0,0.0
09:51:17,339.289,0.0,0.0
09:51:17,273.996,0.0,0.0
09:51:17,305.975,0.0,0.0
09:51:17,318.092,0.0,0.0
09:51:17,267.616,0.0,0.0
09:51:17,339.248,0.0,0.0
09:51:17,273.501,0.0,0.0
09:51:17,307.174,0.0,0.0
09:51:17,316.978,0.0,0.0
09:51:17,265.114,0.0,0.0
09:51:17,336.8,0.0,0.0
09:51:17,272.158,0.0,0.0
09:51:17,306.458,0.0,0.0
09:51:17,316.798,0.0,0.0
09:51:17,266.012,0.0,0.0
09:51:17,339.629,0.0,0.0
09:51:17,275.566,0.0,0.0
09:51:17,310.046,0.0,0.0
09:51:17,318.778,0.0,0.0
09:51:17,269.889,0.0,0.0
09:51:17,340.691,0.0,0.0
09:51:17,273.038,0.0,0.0
09:51:17,308.414,0.0,0.0
09:51:17,316.359,0.0,0.0
09:51:17,265.917,0.0,0.0
09:51:17,337.758,0.0,0.0
09:51:17,269.873,0.0,0.0
09:51:17,300.826,0.0,0.0
09:51:17,306.104,0.0,0.0
09:51:17,254.09,0.0,0.0
09:51:17,327.061,0.0,0.0
09:51:17,262.524,0.0,0.0
09:51:17,295.718,0.0,0.0
09:51:17,299.506,0.0,0.0
09:51:17,244.908,0.0,0.0
09:51:17,312.029,0.0,0.0
09:51:17,243.754,0.0,0.0
09:51:17,278.51,0.0,0.0
09:51:17,280.386,0.0,0.0
09:51:17,226.694,0.0,0.0
09:51:17,296.373,0.0,0.0
09:51:17,229.313,0.0,0.0
09:51:17,265.026,0.0,0.0
09:51:17,269.772,0.0,0.0
09:51:17,220.859,0.0,0.0
09:51:17,292.368,0.0,0.0
09:51:17,226.904,0.0,0.0
09:51:17,265.544,0.0,0.0
09:51:17,270.415,0.0,0.0
09:51:17,222.256,0.0,0.0
09:51:17,292.786,0.0,0.0
09:51:17,226.556,0.0,0.0
09:51:17,265.179,0.0,0.0
09:51:17,271.548,0.0,0.0
09:51:17,226.099,0.0,0.0
09:51:18,297.473,0.0,0.0
09:51:18,231.659,0.0,0.0
09:51:18,271.172,0.0,0.0
09:51:18,276.335,0.0,0.0
09:51:18,231.602,0.0,0.0
09:51:18,303.608,0.0,0.0
09:51:18,237.066,0.0,0.0
09:51:18,277.71,0.0,0.0
09:51:18,283.48,0.0,0.0
09:51:18,238.771,0.0,0.0
09:51:18,310.158,0.0,0.0
09:51:18,243.59,0.0,0.0
09:51:18,284.598,0.0,0.0
09:51:18,289.829,0.0,0.0
09:51:18,244.344,0.0,0.0
09:51:18,314.708,0.0,0.0
09:51:18,248.058,0.0,0.0
09:51:18,288.986,0.0,0.0
09:51:18,292.459,0.0,0.0
09:51:18,247.458,0.0,0.0
09:51:18,317.778,0.0,0.0
09:51:18,249.995,0.0,0.0
09:51:18,290.709,0.0,0.0
09:51:18,293.104,0.0,0.0
09:51:18,248.688,0.0,0.0
09:51:18,319.364,0.0,0.0
09:51:18,251.092,0.0,0.0
09:51:18,291.957,0.0,0.0
09:51:18,294.419,0.0,0.0
09:51:18,250.367,0.0,0.0
09:51:18,319.919,0.0,0.0
09:51:18,251.011,0.0,0.0
09:51:18,291.688,0.0,0.0
09:51:18,293.857,0.0,0.0
09:51:18,250.141,0.0,0.0
09:51:18,319.088,0.0,0.0
09:51:18,249.908,0.0,0.0
09:51:18,291.383,0.0,0.0
09:51:18,291.609,0.0,0.0
09:51:18,248.381,0.0,0.0
09:51:18,318.499,0.0,0.0
09:51:18,251.24,0.0,0.0
09:51:18,297.774,0.0,0.0
09:51:18,302.297,0.0,0.0
09:51:18,260.82,0.0,0.0
09:51:18,329.21,0.0,0.0
09:51:18,258.831,0.0,0.0
09:51:18,300.668,0.0,0.0
09:51:18,301.153,0.0,0.0
09:51:18,260.073,0.0,0.0
09:51:18,330.128,0.0,0.0
09:51:18,259.531,0.0,0.0
09:51:18,301.266,0.0,0.0
09:51:18,302.865,0.0,0.0
09:51:18,261.795,0.0,0.0
09:51:18,328.017,0.0,0.0
09:51:18,258.998,0.0,0.0
09:51:18,307.274,0.0,0.0
09:51:18,307.941,0.0,0.0
09:51:18,266.506,0.0,0.0
09:51:18,333.278,0.0,0.0
09:51:18,262.369,0.0,0.0
09:51:18,307.908,0.0,0.0
09:51:18,303.694,0.0,0.0
09:51:18,256.853,0.0,0.0
09:51:18,320.111,0.0,0.0
09:51:18,249.939,0.0,0.0
09:51:18,299.422,0.0,0.0
09:51:18,296.821,0.0,0.0
09:51:18,254.295,0.0,0.0
09:51:18,322.746,0.0,0.0
09:51:18,253.269,0.0,0.0
09:51:18,295.822,0.0,0.0
09:51:18,289.335,0.0,0.0
09:51:18,248.325,0.0,0.0
09:51:18,317.444,0.0,0.0
09:51:18,250.718,0.0,0.0
09:51:18,299.302,0.0,0.0
09:51:18,297.597,0.0,0.0
09:51:18,260.046,0.0,0.0
09:51:18,329.233,0.0,0.0
09:51:18,258.693,0.0,0.0
09:51:18,303.241,0.0,0.0
09:51:18,297.718,0.0,0.0
09:51:18,257.427,0.0,0.0
09:51:18,323.573,0.0,0.0
09:51:18,253.61,0.0,0.0
09:51:18,303.905,0.0,0.0
09:51:18,305.403,0.0,0.0
09:51:18,273.724,0.0,0.0
09:51:18,345.533,0.0,0.0
09:51:18,278.409,0.0,0.0
09:51:18,331.899,0.0,0.0
09:51:18,328.634,0.0,0.0
09:51:18,284.246,0.0,0.0
09:51:18,346.113,0.0,0.0
09:51:18,279.438,0.0,0.0
09:51:18,333.181,0.0,0.0
09:51:18,325.0,0.0,0.0
09:51:18,285.988,0.0,0.0
09:51:18,352.607,0.0,0.0
09:51:18,280.362,0.0,0.0
09:51:18,326.558,0.0,0.0
09:51:18,318.496,0.0,0.0
09:51:18,280.239,0.0,0.0
09:51:18,345.752,0.0,0.0
09:51:18,275.469,0.0,0.0
09:51:18,323.197,0.0,0.0
09:51:18,315.492,0.0,0.0
09:51:18,277.947,0.0,0.0
09:51:18,342.398,0.0,0.0
09:51:18,270.741,0.0,0.0
09:51:18,317.578,0.0,0.0
09:51:18,308.573,0.0,0.0
09:51:18,271.185,0.0,0.0
09:51:18,336.018,0.0,0.0
09:51:18,266.063,0.0,0.0
09:51:18,315.442,0.0,0.0
09:51:18,307.721,0.0,0.0
09:51:18,272.594,0.0,0.0
09:51:18,338.231,0.0,0.0
09:51:18,268.158,0.0,0.0
09:51:18,317.431,0.0,0.0
09:51:18,308.671,0.0,0.0
09:51:18,273.546,0.0,0.0
09:51:19,338.039,0.0,0.0
09:51:19,267.115,0.0,0.0
09:51:19,316.005,0.0,0.0
09:51:19,306.433,0.0,0.0
09:51:19,271.747,0.0,0.0
09:51:19,335.911,0.0,0.0
09:51:19,265.282,0.0,0.0
09:51:19,314.535,0.0,0.0
09:51:19,304.172,0.0,0.0
09:51:19,269.908,0.0,0.0
09:51:19,333.553,0.0,0.0
09:51:19,262.439,0.0,0.0
09:51:19,312.635,0.0,0.0
09:51:19,302.434,0.0,0.0
09:51:19,269.139,0.0,0.0
09:51:19,333.744,0.0,0.0
09:51:19,263.423,0.0,0.0
09:51:19,313.789,0.0,0.0
09:51:19,303.076,0.0,0.0
09:51:19,269.084,0.0,0.0
09:51:19,330.651,0.0,0.0
09:51:19,256.953,0.0,0.0
09:51:19,309.487,0.0,0.0
09:51:19,304.629,0.0,0.0
09:51:19,272.994,0.0,0.0
09:51:19,336.75,0.0,0.0
09:51:19,262.129,0.0,0.0
09:51:19,308.907,0.0,0.0
09:51:19,293.878,0.0,0.0
09:51:19,257.938,0.0,0.0
09:51:19,314.665,0.0,0.0
09:51:19,232.141,0.0,0.0
09:51:19,272.108,0.0,0.0
09:51:19,253.065,0.0,0.0
09:51:19,218.435,0.0,0.0
09:51:19,279.757,0.0,0.0
09:51:19,209.341,0.0,0.0
09:51:19,262.562,0.0,0.0
09:51:19,246.429,0.0,0.0
09:51:19,211.054,0.0,0.0
09:51:19,274.762,0.0,0.0
09:51:19,204.759,0.0,0.0
09:51:19,258.629,0.0,0.0
09:51:19,248.861,0.0,0.0
09:51:19,221.514,0.0,0.0
09:51:19,286.657,0.0,0.0
09:51:19,216.712,0.0,0.0
09:51:19,270.525,0.0,0.0
09:51:19,258.092,0.0,0.0
09:51:19,229.188,0.0,0.0
09:51:19,292.586,0.0,0.0
09:51:19,222.791,0.0,0.0
09:51:19,278.051,0.0,0.0
09:51:19,265.294,0.0,0.0
09:51:19,237.461,0.0,0.0
09:51:19,301.524,0.0,0.0
09:51:19,231.659,0.0,0.0
09:51:19,285.989,0.0,0.0
09:51:19,271.643,0.0,0.0
09:51:19,243.288,0.0,0.0
09:51:19,306.259,0.0,0.0
09:51:19,235.925,0.0,0.0
09:51:19,291.106,0.0,0.0
09:51:19,277.131,0.0,0.0
09:51:19,249.3,0.0,0.0
09:51:19,311.983,0.0,0.0
09:51:19,241.098,0.0,0.0
09:51:19,295.834,0.0,0.0
09:51:19,280.044,0.0,0.0
09:51:19,251.884,0.0,0.0
09:51:19,314.019,0.0,0.0
09:51:19,242.385,0.0,0.0
09:51:19,296.724,0.0,0.0
09:51:19,280.075,0.0,0.0
09:51:19,252.679,0.0,0.0
09:51:19,314.594,0.0,0.0
09:51:19,243.221,0.0,0.0
09:51:19,298.465,0.0,0.0
09:51:19,282.334,0.0,0.0
09:51:19,255.991,0.0,0.0
09:51:19,317.664,0.0,0.0
09:51:19,246.789,0.0,0.0
09:51:19,302.879,0.0,0.0
09:51:19,286.251,0.0,0.0
09:51:19,260.493,0.0,0.0
09:51:19,322.192,0.0,0.0
09:51:19,251.534,0.0,0.0
09:51:19,308.132,0.0,0.0
09:51:19,292.066,0.0,0.0
09:51:19,268.313,0.0,0.0
09:51:19,329.956,0.0,0.0
09:51:19,258.311,0.0,0.0
09:51:19,313.866,0.0,0.0
09:51:19,295.363,0.0,0.0
09:51:19,269.951,0.0,0.0
09:51:19,329.878,0.0,0.0
09:51:19,258.566,0.0,0.0
09:51:19,315.536,0.0,0.0
09:51:19,297.115,0.0,0.0
09:51:19,272.439,0.0,0.0
09:51:19,332.982,0.0,0.0
09:51:19,263.311,0.0,0.0
09:51:19,320.839,0.0,0.0
09:51:19,301.531,0.0,0.0
09:51:19,278.318,0.0,0.0
09:51:19,340.324,0.0,0.0
09:51:19,270.813,0.0,0.0
09:51:19,327.816,0.0,0.0
09:51:19,306.069,0.0,0.0
09:51:19,278.91,0.0,0.0
09:51:19,341.179,0.0,0.0
09:51:19,278.29,0.0,0.0
09:51:19,337.433,0.0,0.0
09:51:19,318.359,0.0,0.0
09:51:19,290.628,0.0,0.0
09:51:19,343.355,0.0,0.0
09:51:19,270.711,0.0,0.0
09:51:19,328.086,0.0,0.0
09:51:19,306.288,0.0,0.0
09:51:19,282.353,0.0,0.0
09:51:19,340.564,0.0,0.0
09:51:19,269.293,0.0,0.0
09:51:19,327.037,0.0,0.0
09:51:19,305.094,0.0,0.0
09:51:19,282.371,0.0,0.0
09:51:20,340.062,0.0,0.0
09:51:20,268.097,0.0,0.0
09:51:20,325.92,0.0,0.0
09:51:20,303.598,0.0,0.0
09:51:20,282.051,0.0,0.0
09:51:20,339.554,0.0,0.0
09:51:20,267.748,0.0,0.0
09:51:20,325.756,0.0,0.0
09:51:20,302.408,0.0,0.0
09:51:20,280.973,0.0,0.0
09:51:20,338.41,0.0,0.0
09:51:20,266.333,0.0,0.0
09:51:20,326.457,0.0,0.0
09:51:20,303.366,0.0,0.0
09:51:20,283.393,0.0,0.0
09:51:20,339.959,0.0,0.0
09:51:20,268.541,0.0,0.0
09:51:20,327.828,0.0,0.0
09:51:20,305.721,0.0,0.0
09:51:20,286.018,0.0,0.0
09:51:20,341.689,0.0,0.0
09:51:20,269.58,0.0,0.0
09:51:20,329.198,0.0,0.0
09:51:20,305.683,0.0,0.0
09:51:20,286.281,0.0,0.0
09:51:20,342.693,0.0,0.0
09:51:20,271.684,0.0,0.0
09:51:20,330.664,0.0,0.0
09:51:20,304.665,0.0,0.0
09:51:20,285.214,0.0,0.0
09:51:20,341.626,0.0,0.0
09:51:20,270.956,0.0,0.0
09:51:20,330.458,0.0,0.0
09:51:20,302.929,0.0,0.0
09:51:20,278.786,0.0,0.0
09:51:20,332.042,0.0,0.0
09:51:20,261.894,0.0,0.0
09:51:20,325.12,0.0,0.0
09:51:20,303.215,0.0,0.0
09:51:20,283.036,0.0,0.0
09:51:20,331.454,0.0,0.0
09:51:20,260.029,0.0,0.0
09:51:20,328.449,0.0,0.0
09:51:20,312.97,0.0,0.0
09:51:20,299.366,0.0,0.0
09:51:20,356.621,0.0,0.0
09:51:20,286.614,0.0,0.0
09:51:20,344.433,0.0,0.0
09:51:20,310.511,0.0,0.0
09:51:20,288.959,0.0,0.0
09:51:20,343.542,0.0,0.0
09:51:20,278.639,0.0,0.0
09:51:20,347.544,0.0,0.0
09:51:20,319.324,0.0,0.0
09:51:20,302.232,0.0,0.0
09:51:20,356.103,0.0,0.0
09:51:20,282.656,0.0,0.0
09:51:20,340.866,0.0,0.0
09:51:20,311.521,0.0,0.0
09:51:20,294.916,0.0,0.0
09:51:20,346.462,0.0,0.0
09:51:20,274.285,0.0,0.0
09:51:20,334.671,0.0,0.0
09:51:20,305.239,0.0,0.0
09:51:20,289.145,0.0,0.0
09:51:20,341.159,0.0,0.0
09:51:20,270.038,0.0,0.0
09:51:20,331.248,0.0,0.0
09:51:20,301.818,0.0,0.0
09:51:20,286.863,0.0,0.0
09:51:20,338.926,0.0,0.0
09:51:20,267.989,0.0,0.0
09:51:20,329.629,0.0,0.0
09:51:20,299.643,0.0,0.0
09:51:20,285.103,0.0,0.0
09:51:20,335.387,0.0,0.0
09:51:20,261.008,0.0,0.0
09:51:20,318.264,0.0,0.0
09:51:20,288.765,0.0,0.0
09:51:20,287.227,0.0,0.0
09:51:20,344.359,0.0,0.0
09:51:20,275.634,0.0,0.0
09:51:20,335.886,0.0,0.0
09:51:20,299.221,0.0,0.0
09:51:20,282.857,0.0,0.0
09:51:20,332.114,0.0,0.0
09:51:20,260.742,0.0,0.0
09:51:20,322.876,0.0,0.0
09:51:20,291.348,0.0,0.0
09:51:20,278.614,0.0,0.0
09:51:20,328.739,0.0,0.0
09:51:20,258.511,0.0,0.0
09:51:20,320.97,0.0,0.0
09:51:20,289.076,0.0,0.0
09:51:20,277.191,0.0,0.0
09:51:20,326.637,0.0,0.0
09:51:20,256.698,0.0,0.0
09:51:20,319.215,0.0,0.0
09:51:20,286.814,0.0,0.0
09:51:20,275.507,0.0,0.0
09:51:20,323.669,0.0,0.0
09:51:20,254.046,0.0,0.0
09:51:20,316.277,0.0,0.0
09:51:20,283.171,0.0,0.0
09:51:20,272.727,0.0,0.0
09:51:20,320.64,0.0,0.0
09:51:20,251.56,0.0,0.0
09:51:20,314.377,0.0,0.0
09:51:20,281.406,0.0,0.0
09:51:20,272.284,0.0,0.0
09:51:20,320.834,0.0,0.0
09:51:20,252.82,0.0,0.0
09:51:20,317.216,0.0,0.0
09:51:20,284.605,0.0,0.0
09:51:20,276.446,0.0,0.0
09:51:20,325.146,0.0,0.0
09:51:20,256.758,0.0,0.0
09:51:20,320.716,0.0,0.0
09:51:20,286.934,0.0,0.0
09:51:20,278.68,0.0,0.0
09:51:20,326.499,0.0,0.0
09:51:20,257.722,0.0,0.0
09:51:20,321.574,0.0,0.0
09:51:20,286.854,0.0,0.0
09:51:20,278.769,0.0,0.0
09:51:21,326.109,0.0,0.0
09:51:21,257.146,0.0,0.0
09:51:21,321.383,0.0,0.0
09:51:21,286.311,0.0,0.0
09:51:21,278.543,0.0,0.0
09:51:21,325.447,0.0,0.0
09:51:21,256.508,0.0,0.0
09:51:21,320.958,0.0,0.0
09:51:21,285.534,0.0,0.0
09:51:21,278.454,0.0,0.0
09:51:21,324.959,0.0,0.0
09:51:21,256.311,0.0,0.0
09:51:21,320.975,0.0,0.0
09:51:21,285.038,0.0,0.0
09:51:21,278.479,0.0,0.0
09:51:21,324.429,0.0,0.0
09:51:21,256.013,0.0,0.0
09:51:21,320.758,0.0,0.0
09:51:21,284.391,0.0,0.0
09:51:21,278.527,0.0,0.0
09:51:21,323.942,0.0,0.0
09:51:21,255.783,0.0,0.0
09:51:21,320.543,0.0,0.0
09:51:21,283.821,0.0,0.0
09:51:21,278.625,0.0,0.0
09:51:21,323.164,0.0,0.0
09:51:21,255.967,0.0,0.0
09:51:21,320.576,0.0,0.0
09:51:21,283.275,0.0,0.0
09:51:21,279.071,0.0,0.0
09:51:21,322.784,0.0,0.0
09:51:21,255.796,0.0,0.0
09:51:21,320.716,0.0,0.0
09:51:21,283.355,0.0,0.0
09:51:21,279.34,0.0,0.0
09:51:21,322.088,0.0,0.0
09:51:21,255.106,0.0,0.0
09:51:21,320.238,0.0,0.0
09:51:21,281.71,0.0,0.0
09:51:21,277.768,0.0,0.0
09:51:21,320.818,0.0,0.0
09:51:21,253.856,0.0,0.0
09:51:21,319.039,0.0,0.0
09:51:21,280.404,0.0,0.0
09:51:21,277.802,0.0,0.0
09:51:21,320.809,0.0,0.0
09:51:21,254.172,0.0,0.0
09:51:21,319.974,0.0,0.0
09:51:21,281.138,0.0,0.0
09:51:21,279.127,0.0,0.0
09:51:21,321.889,0.0,0.0
09:51:21,255.021,0.0,0.0
09:51:21,320.791,0.0,0.0
09:51:21,280.371,0.0,0.0
09:51:21,275.791,0.0,0.0
09:51:21,313.819,0.0,0.0
09:51:21,246.277,0.0,0.0
09:51:21,324.189,0.0,0.0
09:51:21,291.856,0.0,0.0
09:51:21,292.866,0.0,0.0
09:51:21,334.242,0.0,0.0
09:51:21,261.661,0.0,0.0
09:51:21,323.881,0.0,0.0
09:51:21,281.636,0.0,0.0
09:51:21,279.821,0.0,0.0
09:51:21,320.491,0.0,0.0
09:51:21,