TimeStramp,ECG,SpO2,Respiration
15:15:20,785203.0,0.0,0.0
15:15:20,785684.0,0.0,0.0
15:15:20,784970.0,0.0,0.0
15:15:20,785651.0,0.0,0.0
15:15:20,785243.0,0.0,0.0
15:15:20,785160.0,0.0,0.0
15:15:20,785626.0,0.0,0.0
15:15:20,784956.0,0.0,0.0
15:15:20,785633.0,0.0,0.0
15:15:20,785241.0,0.0,0.0
15:15:20,785189.0,0.0,0.0
15:15:20,785678.0,0.0,0.0
15:15:20,784971.0,0.0,0.0
15:15:20,785640.0,0.0,0.0
15:15:20,785264.0,0.0,0.0
15:15:20,785209.0,0.0,0.0
15:15:20,785644.0,0.0,0.0
15:15:20,784903.0,0.0,0.0
15:15:20,785588.0,0.0,0.0
15:15:20,785213.0,0.0,0.0
15:15:20,785156.0,0.0,0.0
15:15:20,785602.0,0.0,0.0
15:15:20,784923.0,0.0,0.0
15:15:20,785558.0,0.0,0.0
15:15:20,785156.0,0.0,0.0
15:15:20,785148.0,0.0,0.0
15:15:20,785611.0,0.0,0.0
15:15:20,784903.0,0.0,0.0
15:15:20,785554.0,0.0,0.0
15:15:20,785130.0,0.0,0.0
15:15:20,785088.0,0.0,0.0
15:15:20,785544.0,0.0,0.0
15:15:20,784848.0,0.0,0.0
15:15:20,785494.0,0.0,0.0
15:15:20,785160.0,0.0,0.0
15:15:20,785083.0,0.0,0.0
15:15:20,785543.0,0.0,0.0
15:15:20,784847.0,0.0,0.0
15:15:20,785516.0,0.0,0.0
15:15:20,785108.0,0.0,0.0
15:15:20,785073.0,0.0,0.0
15:15:20,785509.0,0.0,0.0
15:15:20,784869.0,0.0,0.0
15:15:20,785509.0,0.0,0.0
15:15:20,785125.0,0.0,0.0
15:15:20,785093.0,0.0,0.0
15:15:20,785519.0,0.0,0.0
15:15:20,784826.0,0.0,0.0
15:15:20,785518.0,0.0,0.0
15:15:20,785146.0,0.0,0.0
15:15:20,785136.0,0.0,0.0
15:15:20,785574.0,0.0,0.0
15:15:20,784894.0,0.0,0.0
15:15:20,785549.0,0.0,0.0
15:15:20,785126.0,0.0,0.0
15:15:20,785088.0,0.0,0.0
15:15:20,785474.0,0.0,0.0
15:15:20,784761.0,0.0,0.0
15:15:20,785453.0,0.0,0.0
15:15:20,785049.0,0.0,0.0
15:15:20,785003.0,0.0,0.0
15:15:20,785412.0,0.0,0.0
15:15:20,784746.0,0.0,0.0
15:15:20,785403.0,0.0,0.0
15:15:20,785060.0,0.0,0.0
15:15:20,784990.0,0.0,0.0
15:15:20,785434.0,0.0,0.0
15:15:20,784724.0,0.0,0.0
15:15:20,785341.0,0.0,0.0
15:15:20,785003.0,0.0,0.0
15:15:20,785135.0,0.0,0.0
15:15:20,785619.0,0.0,0.0
15:15:20,784834.0,0.0,0.0
15:15:20,785422.0,0.0,0.0
15:15:20,785018.0,0.0,0.0
15:15:20,785034.0,0.0,0.0
15:15:20,785534.0,0.0,0.0
15:15:20,784877.0,0.0,0.0
15:15:20,785546.0,0.0,0.0
15:15:20,785148.0,0.0,0.0
15:15:20,785124.0,0.0,0.0
15:15:20,785563.0,0.0,0.0
15:15:20,784864.0,0.0,0.0
15:15:20,785524.0,0.0,0.0
15:15:20,785143.0,0.0,0.0
15:15:20,785088.0,0.0,0.0
15:15:20,785539.0,0.0,0.0
15:15:20,784826.0,0.0,0.0
15:15:20,785498.0,0.0,0.0
15:15:20,785101.0,0.0,0.0
15:15:20,785028.0,0.0,0.0
15:15:20,785489.0,0.0,0.0
15:15:20,784754.0,0.0,0.0
15:15:20,785401.0,0.0,0.0
15:15:20,785046.0,0.0,0.0
15:15:20,785023.0,0.0,0.0
15:15:20,785479.0,0.0,0.0
15:15:20,784776.0,0.0,0.0
15:15:20,785433.0,0.0,0.0
15:15:20,785029.0,0.0,0.0
15:15:20,785028.0,0.0,0.0
15:15:20,785448.0,0.0,0.0
15:15:20,784738.0,0.0,0.0
15:15:20,785397.0,0.0,0.0
15:15:20,784994.0,0.0,0.0
15:15:20,784953.0,0.0,0.0
15:15:20,785382.0,0.0,0.0
15:15:20,784691.0,0.0,0.0
15:15:20,785390.0,0.0,0.0
15:15:20,784949.0,0.0,0.0
15:15:20,784864.0,0.0,0.0
15:15:20,785321.0,0.0,0.0
15:15:20,784619.0,0.0,0.0
15:15:20,785273.0,0.0,0.0
15:15:20,784897.0,0.0,0.0
15:15:20,784843.0,0.0,0.0
15:15:20,785284.0,0.0,0.0
15:15:20,784589.0,0.0,0.0
15:15:20,785275.0,0.0,0.0
15:15:20,784876.0,0.0,0.0
15:15:20,784851.0,0.0,0.0
15:15:20,785276.0,0.0,0.0
15:15:20,784619.0,0.0,0.0
15:15:20,785276.0,0.0,0.0
15:15:20,784888.0,0.0,0.0
15:15:21,784834.0,0.0,0.0
15:15:21,785276.0,0.0,0.0
15:15:21,784610.0,0.0,0.0
15:15:21,785294.0,0.0,0.0
15:15:21,784864.0,0.0,0.0
15:15:21,784857.0,0.0,0.0
15:15:21,785324.0,0.0,0.0
15:15:21,784609.0,0.0,0.0
15:15:21,785281.0,0.0,0.0
15:15:21,784902.0,0.0,0.0
15:15:21,784859.0,0.0,0.0
15:15:21,785285.0,0.0,0.0
15:15:21,784593.0,0.0,0.0
15:15:21,785288.0,0.0,0.0
15:15:21,784838.0,0.0,0.0
15:15:21,784798.0,0.0,0.0
15:15:21,785239.0,0.0,0.0
15:15:21,784517.0,0.0,0.0
15:15:21,785189.0,0.0,0.0
15:15:21,784733.0,0.0,0.0
15:15:21,784723.0,0.0,0.0
15:15:21,785157.0,0.0,0.0
15:15:21,784451.0,0.0,0.0
15:15:21,785129.0,0.0,0.0
15:15:21,784695.0,0.0,0.0
15:15:21,784692.0,0.0,0.0
15:15:21,785131.0,0.0,0.0
15:15:21,784468.0,0.0,0.0
15:15:21,785132.0,0.0,0.0
15:15:21,784716.0,0.0,0.0
15:15:21,784709.0,0.0,0.0
15:15:21,785132.0,0.0,0.0
15:15:21,784436.0,0.0,0.0
15:15:21,785133.0,0.0,0.0
15:15:21,784724.0,0.0,0.0
15:15:21,784679.0,0.0,0.0
15:15:21,785066.0,0.0,0.0
15:15:21,784379.0,0.0,0.0
15:15:21,785044.0,0.0,0.0
15:15:21,784627.0,0.0,0.0
15:15:21,784610.0,0.0,0.0
15:15:21,785034.0,0.0,0.0
15:15:21,784359.0,0.0,0.0
15:15:21,785065.0,0.0,0.0
15:15:21,784646.0,0.0,0.0
15:15:21,784629.0,0.0,0.0
15:15:21,785042.0,0.0,0.0
15:15:21,784326.0,0.0,0.0
15:15:21,784943.0,0.0,0.0
15:15:21,784556.0,0.0,0.0
15:15:21,784682.0,0.0,0.0
15:15:21,785227.0,0.0,0.0
15:15:21,784473.0,0.0,0.0
15:15:21,785078.0,0.0,0.0
15:15:21,784603.0,0.0,0.0
15:15:21,784564.0,0.0,0.0
15:15:21,785018.0,0.0,0.0
15:15:21,784337.0,0.0,0.0
15:15:21,785034.0,0.0,0.0
15:15:21,784644.0,0.0,0.0
15:15:21,784596.0,0.0,0.0
15:15:21,785008.0,0.0,0.0
15:15:21,784302.0,0.0,0.0
15:15:21,784976.0,0.0,0.0
15:15:21,784608.0,0.0,0.0
15:15:21,784587.0,0.0,0.0
15:15:21,784985.0,0.0,0.0
15:15:21,784271.0,0.0,0.0
15:15:21,784963.0,0.0,0.0
15:15:21,784523.0,0.0,0.0
15:15:21,784516.0,0.0,0.0
15:15:21,784946.0,0.0,0.0
15:15:21,784228.0,0.0,0.0
15:15:21,784895.0,0.0,0.0
15:15:21,784455.0,0.0,0.0
15:15:21,784460.0,0.0,0.0
15:15:21,784903.0,0.0,0.0
15:15:21,784222.0,0.0,0.0
15:15:21,784930.0,0.0,0.0
15:15:21,784498.0,0.0,0.0
15:15:21,784484.0,0.0,0.0
15:15:21,784916.0,0.0,0.0
15:15:21,784215.0,0.0,0.0
15:15:21,784918.0,0.0,0.0
15:15:21,784502.0,0.0,0.0
15:15:21,784491.0,0.0,0.0
15:15:21,784883.0,0.0,0.0
15:15:21,784204.0,0.0,0.0
15:15:21,784876.0,0.0,0.0
15:15:21,784463.0,0.0,0.0
15:15:21,784423.0,0.0,0.0
15:15:21,784819.0,0.0,0.0
15:15:21,784106.0,0.0,0.0
15:15:21,784786.0,0.0,0.0
15:15:21,784349.0,0.0,0.0
15:15:21,784375.0,0.0,0.0
15:15:21,784806.0,0.0,0.0
15:15:21,784128.0,0.0,0.0
15:15:21,784793.0,0.0,0.0
15:15:21,784370.0,0.0,0.0
15:15:21,784368.0,0.0,0.0
15:15:21,784795.0,0.0,0.0
15:15:21,784131.0,0.0,0.0
15:15:21,784804.0,0.0,0.0
15:15:21,784369.0,0.0,0.0
15:15:21,784373.0,0.0,0.0
15:15:21,784750.0,0.0,0.0
15:15:21,784056.0,0.0,0.0
15:15:21,784755.0,0.0,0.0
15:15:21,784353.0,0.0,0.0
15:15:21,784346.0,0.0,0.0
15:15:21,784740.0,0.0,0.0
15:15:21,784028.0,0.0,0.0
15:15:21,784704.0,0.0,0.0
15:15:21,784234.0,0.0,0.0
15:15:21,784264.0,0.0,0.0
15:15:21,784683.0,0.0,0.0
15:15:21,783989.0,0.0,0.0
15:15:21,784688.0,0.0,0.0
15:15:21,784256.0,0.0,0.0
15:15:21,784243.0,0.0,0.0
15:15:21,784674.0,0.0,0.0
15:15:21,783989.0,0.0,0.0
15:15:21,784678.0,0.0,0.0
15:15:21,784251.0,0.0,0.0
15:15:22,784285.0,0.0,0.0
15:15:22,784700.0,0.0,0.0
15:15:22,784014.0,0.0,0.0
15:15:22,784728.0,0.0,0.0
15:15:22,784301.0,0.0,0.0
15:15:22,784315.0,0.0,0.0
15:15:22,784709.0,0.0,0.0
15:15:22,784039.0,0.0,0.0
15:15:22,784726.0,0.0,0.0
15:15:22,784288.0,0.0,0.0
15:15:22,784322.0,0.0,0.0
15:15:22,784734.0,0.0,0.0
15:15:22,784028.0,0.0,0.0
15:15:22,784720.0,0.0,0.0
15:15:22,784278.0,0.0,0.0
15:15:22,784273.0,0.0,0.0
15:15:22,784696.0,0.0,0.0
15:15:22,783998.0,0.0,0.0
15:15:22,784684.0,0.0,0.0
15:15:22,784224.0,0.0,0.0
15:15:22,784228.0,0.0,0.0
15:15:22,784647.0,0.0,0.0
15:15:22,783949.0,0.0,0.0
15:15:22,784636.0,0.0,0.0
15:15:22,784154.0,0.0,0.0
15:15:22,784171.0,0.0,0.0
15:15:22,784553.0,0.0,0.0
15:15:22,783812.0,0.0,0.0
15:15:22,784544.0,0.0,0.0
15:15:22,784281.0,0.0,0.0
15:15:22,784399.0,0.0,0.0
15:15:22,784702.0,0.0,0.0
15:15:22,783902.0,0.0,0.0
15:15:22,784526.0,0.0,0.0
15:15:22,784128.0,0.0,0.0
15:15:22,784143.0,0.0,0.0
15:15:22,784598.0,0.0,0.0
15:15:22,783944.0,0.0,0.0
15:15:22,784606.0,0.0,0.0
15:15:22,784125.0,0.0,0.0
15:15:22,784096.0,0.0,0.0
15:15:22,784508.0,0.0,0.0
15:15:22,783845.0,0.0,0.0
15:15:22,784518.0,0.0,0.0
15:15:22,784060.0,0.0,0.0
15:15:22,784081.0,0.0,0.0
15:15:22,784517.0,0.0,0.0
15:15:22,783821.0,0.0,0.0
15:15:22,784468.0,0.0,0.0
15:15:22,784043.0,0.0,0.0
15:15:22,784055.0,0.0,0.0
15:15:22,784461.0,0.0,0.0
15:15:22,783768.0,0.0,0.0
15:15:22,784434.0,0.0,0.0
15:15:22,784023.0,0.0,0.0
15:15:22,784004.0,0.0,0.0
15:15:22,784413.0,0.0,0.0
15:15:22,783729.0,0.0,0.0
15:15:22,784402.0,0.0,0.0
15:15:22,783971.0,0.0,0.0
15:15:22,784004.0,0.0,0.0
15:15:22,784420.0,0.0,0.0
15:15:22,783723.0,0.0,0.0
15:15:22,784409.0,0.0,0.0
15:15:22,783948.0,0.0,0.0
15:15:22,783973.0,0.0,0.0
15:15:22,784369.0,0.0,0.0
15:15:22,783703.0,0.0,0.0
15:15:22,784402.0,0.0,0.0
15:15:22,783936.0,0.0,0.0
15:15:22,783943.0,0.0,0.0
15:15:22,784345.0,0.0,0.0
15:15:22,783692.0,0.0,0.0
15:15:22,784365.0,0.0,0.0
15:15:22,783898.0,0.0,0.0
15:15:22,783885.0,0.0,0.0
15:15:22,784308.0,0.0,0.0
15:15:22,783619.0,0.0,0.0
15:15:22,784312.0,0.0,0.0
15:15:22,783885.0,0.0,0.0
15:15:22,783902.0,0.0,0.0
15:15:22,784316.0,0.0,0.0
15:15:22,783658.0,0.0,0.0
15:15:22,784341.0,0.0,0.0
15:15:22,783867.0,0.0,0.0
15:15:22,783854.0,0.0,0.0
15:15:22,784248.0,0.0,0.0
15:15:22,783554.0,0.0,0.0
15:15:22,784275.0,0.0,0.0
15:15:22,783864.0,0.0,0.0
15:15:22,783848.0,0.0,0.0
15:15:22,784187.0,0.0,0.0
15:15:22,783529.0,0.0,0.0
15:15:22,784236.0,0.0,0.0
15:15:22,783798.0,0.0,0.0
15:15:22,783799.0,0.0,0.0
15:15:22,784209.0,0.0,0.0
15:15:22,783559.0,0.0,0.0
15:15:22,784236.0,0.0,0.0
15:15:22,783801.0,0.0,0.0
15:15:22,783783.0,0.0,0.0
15:15:22,784181.0,0.0,0.0
15:15:22,783473.0,0.0,0.0
15:15:22,784171.0,0.0,0.0
15:15:22,783744.0,0.0,0.0
15:15:22,783773.0,0.0,0.0
15:15:22,784188.0,0.0,0.0
15:15:22,783474.0,0.0,0.0
15:15:22,784145.0,0.0,0.0
15:15:22,783742.0,0.0,0.0
15:15:22,783759.0,0.0,0.0
15:15:22,784136.0,0.0,0.0
15:15:22,783468.0,0.0,0.0
15:15:22,784140.0,0.0,0.0
15:15:22,783691.0,0.0,0.0
15:15:22,783701.0,0.0,0.0
15:15:22,784120.0,0.0,0.0
15:15:22,783453.0,0.0,0.0
15:15:22,784118.0,0.0,0.0
15:15:22,783687.0,0.0,0.0
15:15:22,783701.0,0.0,0.0
15:15:22,784103.0,0.0,0.0
15:15:22,783448.0,0.0,0.0
15:15:22,784093.0,0.0,0.0
15:15:22,783646.0,0.0,0.0
15:15:23,783700.0,0.0,0.0
15:15:23,784073.0,0.0,0.0
15:15:23,783381.0,0.0,0.0
15:15:23,784083.0,0.0,0.0
15:15:23,783633.0,0.0,0.0
15:15:23,783609.0,0.0,0.0
15:15:23,783969.0,0.0,0.0
15:15:23,783298.0,0.0,0.0
15:15:23,784133.0,0.0,0.0
15:15:23,783800.0,0.0,0.0
15:15:23,783730.0,0.0,0.0
15:15:23,784043.0,0.0,0.0
15:15:23,783318.0,0.0,0.0
15:15:23,783999.0,0.0,0.0
15:15:23,783584.0,0.0,0.0
15:15:23,783626.0,0.0,0.0
15:15:23,784013.0,0.0,0.0
15:15:23,783314.0,0.0,0.0
15:15:23,784005.0,0.0,0.0
15:15:23,783543.0,0.0,0.0
15:15:23,783603.0,0.0,0.0
15:15:23,784005.0,0.0,0.0
15:15:23,783303.0,0.0,0.0
15:15:23,783968.0,0.0,0.0
15:15:23,783525.0,0.0,0.0
15:15:23,783552.0,0.0,0.0
15:15:23,783908.0,0.0,0.0
15:15:23,783233.0,0.0,0.0
15:15:23,783953.0,0.0,0.0
15:15:23,783469.0,0.0,0.0
15:15:23,783493.0,0.0,0.0
15:15:23,783899.0,0.0,0.0
15:15:23,783197.0,0.0,0.0
15:15:23,783843.0,0.0,0.0
15:15:23,783419.0,0.0,0.0
15:15:23,783468.0,0.0,0.0
15:15:23,783887.0,0.0,0.0
15:15:23,783213.0,0.0,0.0
15:15:23,783847.0,0.0,0.0
15:15:23,783376.0,0.0,0.0
15:15:23,783416.0,0.0,0.0
15:15:23,783827.0,0.0,0.0
15:15:23,783159.0,0.0,0.0
15:15:23,783807.0,0.0,0.0
15:15:23,783380.0,0.0,0.0
15:15:23,783427.0,0.0,0.0
15:15:23,783810.0,0.0,0.0
15:15:23,783098.0,0.0,0.0
15:15:23,783793.0,0.0,0.0
15:15:23,783328.0,0.0,0.0
15:15:23,783358.0,0.0,0.0
15:15:23,783745.0,0.0,0.0
15:15:23,783088.0,0.0,0.0
15:15:23,783774.0,0.0,0.0
15:15:23,783314.0,0.0,0.0
15:15:23,783370.0,0.0,0.0
15:15:23,783751.0,0.0,0.0
15:15:23,783052.0,0.0,0.0
15:15:23,783736.0,0.0,0.0
15:15:23,783263.0,0.0,0.0
15:15:23,783303.0,0.0,0.0
15:15:23,783721.0,0.0,0.0
15:15:23,783018.0,0.0,0.0
15:15:23,783698.0,0.0,0.0
15:15:23,783244.0,0.0,0.0
15:15:23,783286.0,0.0,0.0
15:15:23,783647.0,0.0,0.0
15:15:23,782990.0,0.0,0.0
15:15:23,783715.0,0.0,0.0
15:15:23,783223.0,0.0,0.0
15:15:23,783297.0,0.0,0.0
15:15:23,783720.0,0.0,0.0
15:15:23,783044.0,0.0,0.0
15:15:23,783701.0,0.0,0.0
15:15:23,783225.0,0.0,0.0
15:15:23,783298.0,0.0,0.0
15:15:23,783673.0,0.0,0.0
15:15:23,782959.0,0.0,0.0
15:15:23,783643.0,0.0,0.0
15:15:23,783171.0,0.0,0.0
15:15:23,783221.0,0.0,0.0
15:15:23,783580.0,0.0,0.0
15:15:23,782913.0,0.0,0.0
15:15:23,783597.0,0.0,0.0
15:15:23,783124.0,0.0,0.0
15:15:23,783168.0,0.0,0.0
15:15:23,783551.0,0.0,0.0
15:15:23,782919.0,0.0,0.0
15:15:23,783600.0,0.0,0.0
15:15:23,783119.0,0.0,0.0
15:15:23,783194.0,0.0,0.0
15:15:23,783540.0,0.0,0.0
15:15:23,782886.0,0.0,0.0
15:15:23,783536.0,0.0,0.0
15:15:23,783058.0,0.0,0.0
15:15:23,783144.0,0.0,0.0
15:15:23,783448.0,0.0,0.0
15:15:23,782801.0,0.0,0.0
15:15:23,783488.0,0.0,0.0
15:15:23,783049.0,0.0,0.0
15:15:23,783121.0,0.0,0.0
15:15:23,783432.0,0.0,0.0
15:15:23,782791.0,0.0,0.0
15:15:23,783450.0,0.0,0.0
15:15:23,782997.0,0.0,0.0
15:15:23,783096.0,0.0,0.0
15:15:23,783431.0,0.0,0.0
15:15:23,782779.0,0.0,0.0
15:15:23,783453.0,0.0,0.0
15:15:23,782961.0,0.0,0.0
15:15:23,783060.0,0.0,0.0
15:15:23,783433.0,0.0,0.0
15:15:23,782790.0,0.0,0.0
15:15:23,783468.0,0.0,0.0
15:15:23,782959.0,0.0,0.0
15:15:23,782982.0,0.0,0.0
15:15:23,783332.0,0.0,0.0
15:15:23,782794.0,0.0,0.0
15:15:23,783623.0,0.0,0.0
15:15:23,783106.0,0.0,0.0
15:15:23,783071.0,0.0,0.0
15:15:23,783384.0,0.0,0.0
15:15:23,782709.0,0.0,0.0
15:15:23,783427.0,0.0,0.0
15:15:23,782937.0,0.0,0.0
15:15:24,783007.0,0.0,0.0
15:15:24,783378.0,0.0,0.0
15:15:24,782706.0,0.0,0.0
15:15:24,783376.0,0.0,0.0
15:15:24,782914.0,0.0,0.0
15:15:24,782976.0,0.0,0.0
15:15:24,783352.0,0.0,0.0
15:15:24,782709.0,0.0,0.0
15:15:24,783421.0,0.0,0.0
15:15:24,782948.0,0.0,0.0
15:15:24,783003.0,0.0,0.0
15:15:24,783336.0,0.0,0.0
15:15:24,782681.0,0.0,0.0
15:15:24,783408.0,0.0,0.0
15:15:24,782938.0,0.0,0.0
15:15:24,783020.0,0.0,0.0
15:15:24,783365.0,0.0,0.0
15:15:24,782688.0,0.0,0.0
15:15:24,783429.0,0.0,0.0
15:15:24,782942.0,0.0,0.0
15:15:24,782978.0,0.0,0.0
15:15:24,783324.0,0.0,0.0
15:15:24,782677.0,0.0,0.0
15:15:24,783369.0,0.0,0.0
15:15:24,782878.0,0.0,0.0
15:15:24,782974.0,0.0,0.0
15:15:24,783327.0,0.0,0.0
15:15:24,782690.0,0.0,0.0
15:15:24,783384.0,0.0,0.0
15:15:24,782891.0,0.0,0.0
15:15:24,782974.0,0.0,0.0
15:15:24,783331.0,0.0,0.0
15:15:24,782623.0,0.0,0.0
15:15:24,783303.0,0.0,0.0
15:15:24,782815.0,0.0,0.0
15:15:24,782869.0,0.0,0.0
15:15:24,783203.0,0.0,0.0
15:15:24,782559.0,0.0,0.0
15:15:24,783274.0,0.0,0.0
15:15:24,782789.0,0.0,0.0
15:15:24,782844.0,0.0,0.0
15:15:24,783160.0,0.0,0.0
15:15:24,782528.0,0.0,0.0
15:15:24,783261.0,0.0,0.0
15:15:24,782793.0,0.0,0.0
15:15:24,782854.0,0.0,0.0
15:15:24,783196.0,0.0,0.0
15:15:24,782562.0,0.0,0.0
15:15:24,783248.0,0.0,0.0
15:15:24,782746.0,0.0,0.0
15:15:24,782776.0,0.0,0.0
15:15:24,783077.0,0.0,0.0
15:15:24,782434.0,0.0,0.0
15:15:24,783188.0,0.0,0.0
15:15:24,782729.0,0.0,0.0
15:15:24,782801.0,0.0,0.0
15:15:24,783112.0,0.0,0.0
15:15:24,782460.0,0.0,0.0
15:15:24,783164.0,0.0,0.0
15:15:24,782661.0,0.0,0.0
15:15:24,782761.0,0.0,0.0
15:15:24,783067.0,0.0,0.0
15:15:24,782430.0,0.0,0.0
15:15:24,783137.0,0.0,0.0
15:15:24,782646.0,0.0,0.0
15:15:24,782729.0,0.0,0.0
15:15:24,783048.0,0.0,0.0
15:15:24,782451.0,0.0,0.0
15:15:24,783144.0,0.0,0.0
15:15:24,782632.0,0.0,0.0
15:15:24,782719.0,0.0,0.0
15:15:24,783013.0,0.0,0.0
15:15:24,782399.0,0.0,0.0
15:15:24,783114.0,0.0,0.0
15:15:24,782599.0,0.0,0.0
15:15:24,782708.0,0.0,0.0
15:15:24,783006.0,0.0,0.0
15:15:24,782383.0,0.0,0.0
15:15:24,783124.0,0.0,0.0
15:15:24,782604.0,0.0,0.0
15:15:24,782680.0,0.0,0.0
15:15:24,782975.0,0.0,0.0
15:15:24,782368.0,0.0,0.0
15:15:24,783063.0,0.0,0.0
15:15:24,782559.0,0.0,0.0
15:15:24,782698.0,0.0,0.0
15:15:24,783004.0,0.0,0.0
15:15:24,782337.0,0.0,0.0
15:15:24,783035.0,0.0,0.0
15:15:24,782576.0,0.0,0.0
15:15:24,782725.0,0.0,0.0
15:15:24,783049.0,0.0,0.0
15:15:24,782392.0,0.0,0.0
15:15:24,783069.0,0.0,0.0
15:15:24,782562.0,0.0,0.0
15:15:24,782658.0,0.0,0.0
15:15:24,782991.0,0.0,0.0
15:15:24,782324.0,0.0,0.0
15:15:24,783033.0,0.0,0.0
15:15:24,782556.0,0.0,0.0
15:15:24,782654.0,0.0,0.0
15:15:24,782968.0,0.0,0.0
15:15:24,782289.0,0.0,0.0
15:15:24,782978.0,0.0,0.0
15:15:24,782561.0,0.0,0.0
15:15:24,782838.0,0.0,0.0
15:15:24,783151.0,0.0,0.0
15:15:24,782373.0,0.0,0.0
15:15:24,782963.0,0.0,0.0
15:15:24,782477.0,0.0,0.0
15:15:24,782608.0,0.0,0.0
15:15:24,782930.0,0.0,0.0
15:15:24,782291.0,0.0,0.0
15:15:24,783013.0,0.0,0.0
15:15:24,782533.0,0.0,0.0
15:15:24,782636.0,0.0,0.0
15:15:24,782906.0,0.0,0.0
15:15:24,782276.0,0.0,0.0
15:15:24,782963.0,0.0,0.0
15:15:24,782448.0,0.0,0.0
15:15:24,782613.0,0.0,0.0
15:15:24,782920.0,0.0,0.0
15:15:24,782236.0,0.0,0.0
15:15:24,782954.0,0.0,0.0
15:15:24,782414.0,0.0,0.0
15:15:25,782524.0,0.0,0.0
15:15:25,782849.0,0.0,0.0
15:15:25,782206.0,0.0,0.0
15:15:25,782891.0,0.0,0.0
15:15:25,782364.0,0.0,0.0
15:15:25,782493.0,0.0,0.0
15:15:25,782808.0,0.0,0.0
15:15:25,782226.0,0.0,0.0
15:15:25,782921.0,0.0,0.0
15:15:25,782343.0,0.0,0.0
15:15:25,782506.0,0.0,0.0
15:15:25,782814.0,0.0,0.0
15:15:25,782188.0,0.0,0.0
15:15:25,782918.0,0.0,0.0
15:15:25,782416.0,0.0,0.0
15:15:25,782533.0,0.0,0.0
15:15:25,782845.0,0.0,0.0
15:15:25,782199.0,0.0,0.0
15:15:25,782900.0,0.0,0.0
15:15:25,782386.0,0.0,0.0
15:15:25,782514.0,0.0,0.0
15:15:25,782796.0,0.0,0.0
15:15:25,782189.0,0.0,0.0
15:15:25,782892.0,0.0,0.0
15:15:25,782340.0,0.0,0.0
15:15:25,782477.0,0.0,0.0
15:15:25,782816.0,0.0,0.0
15:15:25,782203.0,0.0,0.0
15:15:25,782894.0,0.0,0.0
15:15:25,782353.0,0.0,0.0
15:15:25,782501.0,0.0,0.0
15:15:25,782789.0,0.0,0.0
15:15:25,782160.0,0.0,0.0
15:15:25,782864.0,0.0,0.0
15:15:25,782343.0,0.0,0.0
15:15:25,782443.0,0.0,0.0
15:15:25,782737.0,0.0,0.0
15:15:25,782146.0,0.0,0.0
15:15:25,782879.0,0.0,0.0
15:15:25,782361.0,0.0,0.0
15:15:25,782495.0,0.0,0.0
15:15:25,782785.0,0.0,0.0
15:15:25,782132.0,0.0,0.0
15:15:25,782854.0,0.0,0.0
15:15:25,782369.0,0.0,0.0
15:15:25,782480.0,0.0,0.0
15:15:25,782774.0,0.0,0.0
15:15:25,782191.0,0.0,0.0
15:15:25,782912.0,0.0,0.0
15:15:25,782326.0,0.0,0.0
15:15:25,782446.0,0.0,0.0
15:15:25,782753.0,0.0,0.0
15:15:25,782160.0,0.0,0.0
15:15:25,782842.0,0.0,0.0
15:15:25,782279.0,0.0,0.0
15:15:25,782439.0,0.0,0.0
15:15:25,782751.0,0.0,0.0
15:15:25,782112.0,0.0,0.0
15:15:25,782825.0,0.0,0.0
15:15:25,782281.0,0.0,0.0
15:15:25,782424.0,0.0,0.0
15:15:25,782754.0,0.0,0.0
15:15:25,782154.0,0.0,0.0
15:15:25,782847.0,0.0,0.0
15:15:25,782324.0,0.0,0.0
15:15:25,782428.0,0.0,0.0
15:15:25,782688.0,0.0,0.0
15:15:25,782094.0,0.0,0.0
15:15:25,782823.0,0.0,0.0
15:15:25,782257.0,0.0,0.0
15:15:25,782375.0,0.0,0.0
15:15:25,782658.0,0.0,0.0
15:15:25,782054.0,0.0,0.0
15:15:25,782753.0,0.0,0.0
15:15:25,782218.0,0.0,0.0
15:15:25,782412.0,0.0,0.0
15:15:25,782659.0,0.0,0.0
15:15:25,782031.0,0.0,0.0
15:15:25,782726.0,0.0,0.0
15:15:25,782207.0,0.0,0.0
15:15:25,782354.0,0.0,0.0
15:15:25,782613.0,0.0,0.0
15:15:25,782026.0,0.0,0.0
15:15:25,782758.0,0.0,0.0
15:15:25,782200.0,0.0,0.0
15:15:25,782346.0,0.0,0.0
15:15:25,782649.0,0.0,0.0
15:15:25,782021.0,0.0,0.0
15:15:25,782714.0,0.0,0.0
15:15:25,782188.0,0.0,0.0
15:15:25,782302.0,0.0,0.0
15:15:25,782514.0,0.0,0.0
15:15:25,782006.0,0.0,0.0
15:15:25,782862.0,0.0,0.0
15:15:25,782334.0,0.0,0.0
15:15:25,782409.0,0.0,0.0
15:15:25,782618.0,0.0,0.0
15:15:25,781971.0,0.0,0.0
15:15:25,782673.0,0.0,0.0
15:15:25,782168.0,0.0,0.0
15:15:25,782359.0,0.0,0.0
15:15:25,782618.0,0.0,0.0
15:15:25,782024.0,0.0,0.0
15:15:25,782730.0,0.0,0.0
15:15:25,782177.0,0.0,0.0
15:15:25,782315.0,0.0,0.0
15:15:25,782591.0,0.0,0.0
15:15:25,782008.0,0.0,0.0
15:15:25,782718.0,0.0,0.0
15:15:25,782144.0,0.0,0.0
15:15:25,782313.0,0.0,0.0
15:15:25,782587.0,0.0,0.0
15:15:25,781970.0,0.0,0.0
15:15:25,782682.0,0.0,0.0
15:15:25,782066.0,0.0,0.0
15:15:25,782234.0,0.0,0.0
15:15:25,782530.0,0.0,0.0
15:15:25,781916.0,0.0,0.0
15:15:25,782642.0,0.0,0.0
15:15:25,782098.0,0.0,0.0
15:15:25,782321.0,0.0,0.0
15:15:25,782594.0,0.0,0.0
15:15:25,781969.0,0.0,0.0
15:15:25,782639.0,0.0,0.0
15:15:25,782098.0,0.0,0.0
15:15:26,782299.0,0.0,0.0
15:15:26,782583.0,0.0,0.0
15:15:26,781958.0,0.0,0.0
15:15:26,782677.0,0.0,0.0
15:15:26,782127.0,0.0,0.0
15:15:26,782298.0,0.0,0.0
15:15:26,782561.0,0.0,0.0
15:15:26,781984.0,0.0,0.0
15:15:26,782653.0,0.0,0.0
15:15:26,782050.0,0.0,0.0
15:15:26,782259.0,0.0,0.0
15:15:26,782519.0,0.0,0.0
15:15:26,781931.0,0.0,0.0
15:15:26,782646.0,0.0,0.0
15:15:26,782064.0,0.0,0.0
15:15:26,782298.0,0.0,0.0
15:15:26,782583.0,0.0,0.0
15:15:26,781946.0,0.0,0.0
15:15:26,782646.0,0.0,0.0
15:15:26,782118.0,0.0,0.0
15:15:26,782339.0,0.0,0.0
15:15:26,782583.0,0.0,0.0
15:15:26,781991.0,0.0,0.0
15:15:26,782709.0,0.0,0.0
15:15:26,782128.0,0.0,0.0
15:15:26,782340.0,0.0,0.0
15:15:26,782582.0,0.0,0.0
15:15:26,781949.0,0.0,0.0
15:15:26,782643.0,0.0,0.0
15:15:26,782068.0,0.0,0.0
15:15:26,782275.0,0.0,0.0
15:15:26,782560.0,0.0,0.0
15:15:26,781951.0,0.0,0.0
15:15:26,782648.0,0.0,0.0
15:15:26,782077.0,0.0,0.0
15:15:26,782256.0,0.0,0.0
15:15:26,782526.0,0.0,0.0
15:15:26,781954.0,0.0,0.0
15:15:26,782646.0,0.0,0.0
15:15:26,782086.0,0.0,0.0
15:15:26,782320.0,0.0,0.0
15:15:26,782572.0,0.0,0.0
15:15:26,781964.0,0.0,0.0
15:15:26,782649.0,0.0,0.0
15:15:26,782023.0,0.0,0.0
15:15:26,782233.0,0.0,0.0
15:15:26,782489.0,0.0,0.0
15:15:26,781922.0,0.0,0.0
15:15:26,782661.0,0.0,0.0
15:15:26,782100.0,0.0,0.0
15:15:26,782294.0,0.0,0.0
15:15:26,782510.0,0.0,0.0
15:15:26,781945.0,0.0,0.0
15:15:26,782673.0,0.0,0.0
15:15:26,782071.0,0.0,0.0
15:15:26,782315.0,0.0,0.0
15:15:26,782538.0,0.0,0.0
15:15:26,781943.0,0.0,0.0
15:15:26,782659.0,0.0,0.0
15:15:26,782087.0,0.0,0.0
15:15:26,782288.0,0.0,0.0
15:15:26,782514.0,0.0,0.0
15:15:26,781953.0,0.0,0.0
15:15:26,782641.0,0.0,0.0
15:15:26,782046.0,0.0,0.0
15:15:26,782288.0,0.0,0.0
15:15:26,782505.0,0.0,0.0
15:15:26,781916.0,0.0,0.0
15:15:26,782642.0,0.0,0.0
15:15:26,782048.0,0.0,0.0
15:15:26,782246.0,0.0,0.0
15:15:26,782450.0,0.0,0.0
15:15:26,781913.0,0.0,0.0
15:15:26,782658.0,0.0,0.0
15:15:26,782049.0,0.0,0.0
15:15:26,782207.0,0.0,0.0
15:15:26,782384.0,0.0,0.0
15:15:26,781926.0,0.0,0.0
15:15:26,782804.0,0.0,0.0
15:15:26,782225.0,0.0,0.0
15:15:26,782351.0,0.0,0.0
15:15:26,782462.0,0.0,0.0
15:15:26,781861.0,0.0,0.0
15:15:26,782621.0,0.0,0.0
15:15:26,782057.0,0.0,0.0
15:15:26,782277.0,0.0,0.0
15:15:26,782466.0,0.0,0.0
15:15:26,781873.0,0.0,0.0
15:15:26,782611.0,0.0,0.0
15:15:26,781988.0,0.0,0.0
15:15:26,782214.0,0.0,0.0
15:15:26,782448.0,0.0,0.0
15:15:26,781883.0,0.0,0.0
15:15:26,782606.0,0.0,0.0
15:15:26,782013.0,0.0,0.0
15:15:26,782210.0,0.0,0.0
15:15:26,782406.0,0.0,0.0
15:15:26,781844.0,0.0,0.0
15:15:26,782550.0,0.0,0.0
15:15:26,781936.0,0.0,0.0
15:15:26,782161.0,0.0,0.0
15:15:26,782359.0,0.0,0.0
15:15:26,781792.0,0.0,0.0
15:15:26,782481.0,0.0,0.0
15:15:26,781898.0,0.0,0.0
15:15:26,782136.0,0.0,0.0
15:15:26,782314.0,0.0,0.0
15:15:26,781779.0,0.0,0.0
15:15:26,782459.0,0.0,0.0
15:15:26,781916.0,0.0,0.0
15:15:26,782158.0,0.0,0.0
15:15:26,782342.0,0.0,0.0
15:15:26,781771.0,0.0,0.0
15:15:26,782453.0,0.0,0.0
15:15:26,781861.0,0.0,0.0
15:15:26,782095.0,0.0,0.0
15:15:26,782287.0,0.0,0.0
15:15:26,781678.0,0.0,0.0
15:15:26,782388.0,0.0,0.0
15:15:26,781824.0,0.0,0.0
15:15:26,782068.0,0.0,0.0
15:15:26,782263.0,0.0,0.0
15:15:26,781660.0,0.0,0.0
15:15:26,782402.0,0.0,0.0
15:15:26,781815.0,0.0,0.0
15:15:27,782011.0,0.0,0.0
15:15:27,782209.0,0.0,0.0
15:15:27,781640.0,0.0,0.0
15:15:27,782357.0,0.0,0.0
15:15:27,781789.0,0.0,0.0
15:15:27,782035.0,0.0,0.0
15:15:27,782196.0,0.0,0.0
15:15:27,781638.0,0.0,0.0
15:15:27,782345.0,0.0,0.0
15:15:27,781714.0,0.0,0.0
15:15:27,781967.0,0.0,0.0
15:15:27,782174.0,0.0,0.0
15:15:27,781578.0,0.0,0.0
15:15:27,782284.0,0.0,0.0
15:15:27,781708.0,0.0,0.0
15:15:27,781964.0,0.0,0.0
15:15:27,782138.0,0.0,0.0
15:15:27,781551.0,0.0,0.0
15:15:27,782256.0,0.0,0.0
15:15:27,781646.0,0.0,0.0
15:15:27,781893.0,0.0,0.0
15:15:27,782117.0,0.0,0.0
15:15:27,781535.0,0.0,0.0
15:15:27,782226.0,0.0,0.0
15:15:27,781634.0,0.0,0.0
15:15:27,781858.0,0.0,0.0
15:15:27,782071.0,0.0,0.0
15:15:27,781521.0,0.0,0.0
15:15:27,782216.0,0.0,0.0
15:15:27,781619.0,0.0,0.0
15:15:27,781871.0,0.0,0.0
15:15:27,782008.0,0.0,0.0
15:15:27,781459.0,0.0,0.0
15:15:27,782156.0,0.0,0.0
15:15:27,781574.0,0.0,0.0
15:15:27,781840.0,0.0,0.0
15:15:27,782000.0,0.0,0.0
15:15:27,781454.0,0.0,0.0
15:15:27,782226.0,0.0,0.0
15:15:27,781577.0,0.0,0.0
15:15:27,781803.0,0.0,0.0
15:15:27,782017.0,0.0,0.0
15:15:27,781453.0,0.0,0.0
15:15:27,782153.0,0.0,0.0
15:15:27,781531.0,0.0,0.0
15:15:27,781813.0,0.0,0.0
15:15:27,781966.0,0.0,0.0
15:15:27,781413.0,0.0,0.0
15:15:27,782108.0,0.0,0.0
15:15:27,781503.0,0.0,0.0
15:15:27,781768.0,0.0,0.0
15:15:27,781963.0,0.0,0.0
15:15:27,781403.0,0.0,0.0
15:15:27,782111.0,0.0,0.0
15:15:27,781471.0,0.0,0.0
15:15:27,781734.0,0.0,0.0
15:15:27,781913.0,0.0,0.0
15:15:27,781318.0,0.0,0.0
15:15:27,781984.0,0.0,0.0
15:15:27,781399.0,0.0,0.0
15:15:27,781814.0,0.0,0.0
15:15:27,782120.0,0.0,0.0
15:15:27,781464.0,0.0,0.0
15:15:27,782068.0,0.0,0.0
15:15:27,781396.0,0.0,0.0
15:15:27,781696.0,0.0,0.0
15:15:27,781882.0,0.0,0.0
15:15:27,781311.0,0.0,0.0
15:15:27,782032.0,0.0,0.0
15:15:27,781418.0,0.0,0.0
15:15:27,781683.0,0.0,0.0
15:15:27,781817.0,0.0,0.0
15:15:27,781266.0,0.0,0.0
15:15:27,782029.0,0.0,0.0
15:15:27,781384.0,0.0,0.0
15:15:27,781629.0,0.0,0.0
15:15:27,781835.0,0.0,0.0
15:15:27,781250.0,0.0,0.0
15:15:27,781951.0,0.0,0.0
15:15:27,781301.0,0.0,0.0
15:15:27,781564.0,0.0,0.0
15:15:27,781708.0,0.0,0.0
15:15:27,781184.0,0.0,0.0
15:15:27,781885.0,0.0,0.0
15:15:27,781243.0,0.0,0.0
15:15:27,781542.0,0.0,0.0
15:15:27,781724.0,0.0,0.0
15:15:27,781158.0,0.0,0.0
15:15:27,781892.0,0.0,0.0
15:15:27,781264.0,0.0,0.0
15:15:27,781528.0,0.0,0.0
15:15:27,781659.0,0.0,0.0
15:15:27,781109.0,0.0,0.0
15:15:27,781838.0,0.0,0.0
15:15:27,781224.0,0.0,0.0
15:15:27,781475.0,0.0,0.0
15:15:27,781637.0,0.0,0.0
15:15:27,781103.0,0.0,0.0
15:15:27,781803.0,0.0,0.0
15:15:27,781220.0,0.0,0.0
15:15:27,781486.0,0.0,0.0
15:15:27,781622.0,0.0,0.0
15:15:27,781044.0,0.0,0.0
15:15:27,781740.0,0.0,0.0
15:15:27,781144.0,0.0,0.0
15:15:27,781398.0,0.0,0.0
15:15:27,781555.0,0.0,0.0
15:15:27,781053.0,0.0,0.0
15:15:27,781741.0,0.0,0.0
15:15:27,781144.0,0.0,0.0
15:15:27,781398.0,0.0,0.0
15:15:27,781538.0,0.0,0.0
15:15:27,781009.0,0.0,0.0
15:15:27,781720.0,0.0,0.0
15:15:27,781084.0,0.0,0.0
15:15:27,781347.0,0.0,0.0
15:15:27,781463.0,0.0,0.0
15:15:27,780971.0,0.0,0.0
15:15:27,781686.0,0.0,0.0
15:15:27,781027.0,0.0,0.0
15:15:27,781276.0,0.0,0.0
15:15:27,781446.0,0.0,0.0
15:15:27,780912.0,0.0,0.0
15:15:27,781624.0,0.0,0.0
15:15:27,781016.0,0.0,0.0
15:15:28,781308.0,0.0,0.0
15:15:28,781466.0,0.0,0.0
15:15:28,780894.0,0.0,0.0
15:15:28,781566.0,0.0,0.0
15:15:28,780963.0,0.0,0.0
15:15:28,781234.0,0.0,0.0
15:15:28,781385.0,0.0,0.0
15:15:28,780850.0,0.0,0.0
15:15:28,781568.0,0.0,0.0
15:15:28,780961.0,0.0,0.0
15:15:28,781238.0,0.0,0.0
15:15:28,781374.0,0.0,0.0
15:15:28,780837.0,0.0,0.0
15:15:28,781526.0,0.0,0.0
15:15:28,780906.0,0.0,0.0
15:15:28,781186.0,0.0,0.0
15:15:28,781328.0,0.0,0.0
15:15:28,780813.0,0.0,0.0
15:15:28,781551.0,0.0,0.0
15:15:28,780905.0,0.0,0.0
15:15:28,781183.0,0.0,0.0
15:15:28,781296.0,0.0,0.0
15:15:28,780779.0,0.0,0.0
15:15:28,781454.0,0.0,0.0
15:15:28,780866.0,0.0,0.0
15:15:28,781189.0,0.0,0.0
15:15:28,781309.0,0.0,0.0
15:15:28,780756.0,0.0,0.0
15:15:28,781458.0,0.0,0.0
15:15:28,780837.0,0.0,0.0
15:15:28,781198.0,0.0,0.0
15:15:28,781298.0,0.0,0.0
15:15:28,780761.0,0.0,0.0
15:15:28,781468.0,0.0,0.0
15:15:28,780809.0,0.0,0.0
15:15:28,781098.0,0.0,0.0
15:15:28,781246.0,0.0,0.0
15:15:28,780737.0,0.0,0.0
15:15:28,781464.0,0.0,0.0
15:15:28,780760.0,0.0,0.0
15:15:28,781044.0,0.0,0.0
15:15:28,781103.0,0.0,0.0
15:15:28,780587.0,0.0,0.0
15:15:28,781423.0,0.0,0.0
15:15:28,780981.0,0.0,0.0
15:15:28,781239.0,0.0,0.0
15:15:28,781249.0,0.0,0.0
15:15:28,780648.0,0.0,0.0
15:15:28,781299.0,0.0,0.0
15:15:28,780707.0,0.0,0.0
15:15:28,781016.0,0.0,0.0
15:15:28,781139.0,0.0,0.0
15:15:28,780618.0,0.0,0.0
15:15:28,781293.0,0.0,0.0
15:15:28,780696.0,0.0,0.0
15:15:28,781009.0,0.0,0.0
15:15:28,781144.0,0.0,0.0
15:15:28,780642.0,0.0,0.0
15:15:28,781317.0,0.0,0.0
15:15:28,780653.0,0.0,0.0
15:15:28,780968.0,0.0,0.0
15:15:28,781087.0,0.0,0.0
15:15:28,780576.0,0.0,0.0
15:15:28,781268.0,0.0,0.0
15:15:28,780618.0,0.0,0.0
15:15:28,780938.0,0.0,0.0
15:15:28,781060.0,0.0,0.0
15:15:28,780518.0,0.0,0.0
15:15:28,781196.0,0.0,0.0
15:15:28,780552.0,0.0,0.0
15:15:28,780916.0,0.0,0.0
15:15:28,781013.0,0.0,0.0
15:15:28,780490.0,0.0,0.0
15:15:28,781163.0,0.0,0.0
15:15:28,780550.0,0.0,0.0
15:15:28,780832.0,0.0,0.0
15:15:28,780937.0,0.0,0.0
15:15:28,780432.0,0.0,0.0
15:15:28,781141.0,0.0,0.0
15:15:28,780524.0,0.0,0.0
15:15:28,780848.0,0.0,0.0
15:15:28,780939.0,0.0,0.0
15:15:28,780407.0,0.0,0.0
15:15:28,781126.0,0.0,0.0
15:15:28,780518.0,0.0,0.0
15:15:28,780804.0,0.0,0.0
15:15:28,780903.0,0.0,0.0
15:15:28,780393.0,0.0,0.0
15:15:28,781074.0,0.0,0.0
15:15:28,780438.0,0.0,0.0
15:15:28,780742.0,0.0,0.0
15:15:28,780861.0,0.0,0.0
15:15:28,780387.0,0.0,0.0
15:15:28,781076.0,0.0,0.0
15:15:28,780432.0,0.0,0.0
15:15:28,780741.0,0.0,0.0
15:15:28,780872.0,0.0,0.0
15:15:28,780361.0,0.0,0.0
15:15:28,781046.0,0.0,0.0
15:15:28,780403.0,0.0,0.0
15:15:28,780704.0,0.0,0.0
15:15:28,780816.0,0.0,0.0
15:15:28,780309.0,0.0,0.0
15:15:28,780978.0,0.0,0.0
15:15:28,780369.0,0.0,0.0
15:15:28,780661.0,0.0,0.0
15:15:28,780731.0,0.0,0.0
15:15:28,780268.0,0.0,0.0
15:15:28,780975.0,0.0,0.0
15:15:28,780325.0,0.0,0.0
15:15:28,780652.0,0.0,0.0
15:15:28,780718.0,0.0,0.0
15:15:28,780187.0,0.0,0.0
15:15:28,780908.0,0.0,0.0
15:15:28,780288.0,0.0,0.0
15:15:28,780601.0,0.0,0.0
15:15:28,780719.0,0.0,0.0
15:15:28,780209.0,0.0,0.0
15:15:28,780898.0,0.0,0.0
15:15:28,780279.0,0.0,0.0
15:15:28,780583.0,0.0,0.0
15:15:28,780686.0,0.0,0.0
15:15:28,780164.0,0.0,0.0
15:15:28,780851.0,0.0,0.0
15:15:28,780255.0,0.0,0.0
15:15:29,780575.0,0.0,0.0
15:15:29,780669.0,0.0,0.0
15:15:29,780179.0,0.0,0.0
15:15:29,780891.0,0.0,0.0
15:15:29,780211.0,0.0,0.0
15:15:29,780499.0,0.0,0.0
15:15:29,780620.0,0.0,0.0
15:15:29,780138.0,0.0,0.0
15:15:29,780876.0,0.0,0.0
15:15:29,780241.0,0.0,0.0
15:15:29,780560.0,0.0,0.0
15:15:29,780652.0,0.0,0.0
15:15:29,780123.0,0.0,0.0
15:15:29,780843.0,0.0,0.0
15:15:29,780188.0,0.0,0.0
15:15:29,780516.0,0.0,0.0
15:15:29,780571.0,0.0,0.0
15:15:29,780066.0,0.0,0.0
15:15:29,780757.0,0.0,0.0
15:15:29,780124.0,0.0,0.0
15:15:29,780467.0,0.0,0.0
15:15:29,780508.0,0.0,0.0
15:15:29,780011.0,0.0,0.0
15:15:29,780677.0,0.0,0.0
15:15:29,779955.0,0.0,0.0
15:15:29,780302.0,0.0,0.0
15:15:29,780544.0,0.0,0.0
15:15:29,780199.0,0.0,0.0
15:15:29,780841.0,0.0,0.0
15:15:29,780094.0,0.0,0.0
15:15:29,780349.0,0.0,0.0
15:15:29,780437.0,0.0,0.0
15:15:29,779959.0,0.0,0.0
15:15:29,780663.0,0.0,0.0
15:15:29,780051.0,0.0,0.0
15:15:29,780389.0,0.0,0.0
15:15:29,780442.0,0.0,0.0
15:15:29,779958.0,0.0,0.0
15:15:29,780642.0,0.0,0.0
15:15:29,780003.0,0.0,0.0
15:15:29,780356.0,0.0,0.0
15:15:29,780425.0,0.0,0.0
15:15:29,779888.0,0.0,0.0
15:15:29,780576.0,0.0,0.0
15:15:29,779958.0,0.0,0.0
15:15:29,780293.0,0.0,0.0
15:15:29,780325.0,0.0,0.0
15:15:29,779819.0,0.0,0.0
15:15:29,780476.0,0.0,0.0
15:15:29,779828.0,0.0,0.0
15:15:29,780154.0,0.0,0.0
15:15:29,780225.0,0.0,0.0
15:15:29,779739.0,0.0,0.0
15:15:29,780436.0,0.0,0.0
15:15:29,779783.0,0.0,0.0
15:15:29,780139.0,0.0,0.0
15:15:29,780207.0,0.0,0.0
15:15:29,779702.0,0.0,0.0
15:15:29,780354.0,0.0,0.0
15:15:29,779734.0,0.0,0.0
15:15:29,780105.0,0.0,0.0
15:15:29,780186.0,0.0,0.0
15:15:29,779688.0,0.0,0.0
15:15:29,780363.0,0.0,0.0
15:15:29,779744.0,0.0,0.0
15:15:29,780067.0,0.0,0.0
15:15:29,780122.0,0.0,0.0
15:15:29,779628.0,0.0,0.0
15:15:29,780315.0,0.0,0.0
15:15:29,779696.0,0.0,0.0
15:15:29,780019.0,0.0,0.0
15:15:29,780054.0,0.0,0.0
15:15:29,779571.0,0.0,0.0
15:15:29,780308.0,0.0,0.0
15:15:29,779631.0,0.0,0.0
15:15:29,779988.0,0.0,0.0
15:15:29,780081.0,0.0,0.0
15:15:29,779602.0,0.0,0.0
15:15:29,780288.0,0.0,0.0
15:15:29,779624.0,0.0,0.0
15:15:29,779961.0,0.0,0.0
15:15:29,780039.0,0.0,0.0
15:15:29,779526.0,0.0,0.0
15:15:29,780226.0,0.0,0.0
15:15:29,779556.0,0.0,0.0
15:15:29,779903.0,0.0,0.0
15:15:29,779968.0,0.0,0.0
15:15:29,779493.0,0.0,0.0
15:15:29,780181.0,0.0,0.0
15:15:29,779533.0,0.0,0.0
15:15:29,779886.0,0.0,0.0
15:15:29,779929.0,0.0,0.0
15:15:29,779469.0,0.0,0.0
15:15:29,780151.0,0.0,0.0
15:15:29,779464.0,0.0,0.0
15:15:29,779810.0,0.0,0.0
15:15:29,779907.0,0.0,0.0
15:15:29,779450.0,0.0,0.0
15:15:29,780104.0,0.0,0.0
15:15:29,779453.0,0.0,0.0
15:15:29,779830.0,0.0,0.0
15:15:29,779893.0,0.0,0.0
15:15:29,779428.0,0.0,0.0
15:15:29,780100.0,0.0,0.0
15:15:29,779393.0,0.0,0.0
15:15:29,779774.0,0.0,0.0
15:15:29,779855.0,0.0,0.0
15:15:29,779383.0,0.0,0.0
15:15:29,780086.0,0.0,0.0
15:15:29,779419.0,0.0,0.0
15:15:29,779735.0,0.0,0.0
15:15:29,779830.0,0.0,0.0
15:15:29,779389.0,0.0,0.0
15:15:29,780089.0,0.0,0.0
15:15:29,779414.0,0.0,0.0
15:15:29,779746.0,0.0,0.0
15:15:29,779811.0,0.0,0.0
15:15:29,779333.0,0.0,0.0
15:15:29,780024.0,0.0,0.0
15:15:29,779354.0,0.0,0.0
15:15:29,779707.0,0.0,0.0
15:15:29,779797.0,0.0,0.0
15:15:29,779329.0,0.0,0.0
15:15:29,779971.0,0.0,0.0
15:15:29,779317.0,0.0,0.0
15:15:30,779705.0,0.0,0.0
15:15:30,779779.0,0.0,0.0
15:15:30,779350.0,0.0,0.0
15:15:30,780017.0,0.0,0.0
15:15:30,779358.0,0.0,0.0
15:15:30,779728.0,0.0,0.0
15:15:30,779713.0,0.0,0.0
15:15:30,779223.0,0.0,0.0
15:15:30,779876.0,0.0,0.0
15:15:30,779179.0,0.0,0.0
15:15:30,779638.0,0.0,0.0
15:15:30,779863.0,0.0,0.0
15:15:30,779480.0,0.0,0.0
15:15:30,780068.0,0.0,0.0
15:15:30,779296.0,0.0,0.0
15:15:30,779611.0,0.0,0.0
15:15:30,779688.0,0.0,0.0
15:15:30,779266.0,0.0,0.0
15:15:30,779963.0,0.0,0.0
15:15:30,779294.0,0.0,0.0
15:15:30,779664.0,0.0,0.0
15:15:30,779691.0,0.0,0.0
15:15:30,779229.0,0.0,0.0
15:15:30,779919.0,0.0,0.0
15:15:30,779276.0,0.0,0.0
15:15:30,779643.0,0.0,0.0
15:15:30,779696.0,0.0,0.0
15:15:30,779216.0,0.0,0.0
15:15:30,779909.0,0.0,0.0
15:15:30,779236.0,0.0,0.0
15:15:30,779629.0,0.0,0.0
15:15:30,779652.0,0.0,0.0
15:15:30,779219.0,0.0,0.0
15:15:30,779894.0,0.0,0.0
15:15:30,779226.0,0.0,0.0
15:15:30,779598.0,0.0,0.0
15:15:30,779663.0,0.0,0.0
15:15:30,779188.0,0.0,0.0
15:15:30,779885.0,0.0,0.0
15:15:30,779223.0,0.0,0.0
15:15:30,779625.0,0.0,0.0
15:15:30,779631.0,0.0,0.0
15:15:30,779164.0,0.0,0.0
15:15:30,779871.0,0.0,0.0
15:15:30,779264.0,0.0,0.0
15:15:30,779642.0,0.0,0.0
15:15:30,779689.0,0.0,0.0
15:15:30,779209.0,0.0,0.0
15:15:30,779908.0,0.0,0.0
15:15:30,779241.0,0.0,0.0
15:15:30,779629.0,0.0,0.0
15:15:30,779646.0,0.0,0.0
15:15:30,779209.0,0.0,0.0
15:15:30,779881.0,0.0,0.0
15:15:30,779199.0,0.0,0.0
15:15:30,779588.0,0.0,0.0
15:15:30,779661.0,0.0,0.0
15:15:30,779218.0,0.0,0.0
15:15:30,779898.0,0.0,0.0
15:15:30,779245.0,0.0,0.0
15:15:30,779629.0,0.0,0.0
15:15:30,779688.0,0.0,0.0
15:15:30,779205.0,0.0,0.0
15:15:30,779870.0,0.0,0.0
15:15:30,779262.0,0.0,0.0
15:15:30,779653.0,0.0,0.0
15:15:30,779643.0,0.0,0.0
15:15:30,779169.0,0.0,0.0
15:15:30,779867.0,0.0,0.0
15:15:30,779224.0,0.0,0.0
15:15:30,779636.0,0.0,0.0
15:15:30,779636.0,0.0,0.0
15:15:30,779214.0,0.0,0.0
15:15:30,779900.0,0.0,0.0
15:15:30,779233.0,0.0,0.0
15:15:30,779580.0,0.0,0.0
15:15:30,779618.0,0.0,0.0
15:15:30,779223.0,0.0,0.0
15:15:30,779893.0,0.0,0.0
15:15:30,779193.0,0.0,0.0
15:15:30,779600.0,0.0,0.0
15:15:30,779578.0,0.0,0.0
15:15:30,779148.0,0.0,0.0
15:15:30,779834.0,0.0,0.0
15:15:30,779199.0,0.0,0.0
15:15:30,779589.0,0.0,0.0
15:15:30,779623.0,0.0,0.0
15:15:30,779196.0,0.0,0.0
15:15:30,779874.0,0.0,0.0
15:15:30,779204.0,0.0,0.0
15:15:30,779609.0,0.0,0.0
15:15:30,779633.0,0.0,0.0
15:15:30,779223.0,0.0,0.0
15:15:30,779924.0,0.0,0.0
15:15:30,779211.0,0.0,0.0
15:15:30,779625.0,0.0,0.0
15:15:30,779644.0,0.0,0.0
15:15:30,779191.0,0.0,0.0
15:15:30,779895.0,0.0,0.0
15:15:30,779216.0,0.0,0.0
15:15:30,779611.0,0.0,0.0
15:15:30,779644.0,0.0,0.0
15:15:30,779243.0,0.0,0.0
15:15:30,779916.0,0.0,0.0
15:15:30,779231.0,0.0,0.0
15:15:30,779623.0,0.0,0.0
15:15:30,779698.0,0.0,0.0
15:15:30,779266.0,0.0,0.0
15:15:30,779919.0,0.0,0.0
15:15:30,779257.0,0.0,0.0
15:15:30,779651.0,0.0,0.0
15:15:30,779639.0,0.0,0.0
15:15:30,779220.0,0.0,0.0
15:15:30,779910.0,0.0,0.0
15:15:30,779252.0,0.0,0.0
15:15:30,779618.0,0.0,0.0
15:15:30,779611.0,0.0,0.0
15:15:30,779137.0,0.0,0.0
15:15:30,779887.0,0.0,0.0
15:15:30,779383.0,0.0,0.0
15:15:30,779845.0,0.0,0.0
15:15:30,779802.0,0.0,0.0
15:15:30,779289.0,0.0,0.0
15:15:30,779891.0,0.0,0.0
15:15:30,779234.0,0.0,0.0
15:15:31,779679.0,0.0,0.0
15:15:31,779673.0,0.0,0.0
15:15:31,779251.0,0.0,0.0
15:15:31,779922.0,0.0,0.0
15:15:31,779238.0,0.0,0.0
15:15:31,779647.0,0.0,0.0
15:15:31,779656.0,0.0,0.0
15:15:31,779253.0,0.0,0.0
15:15:31,779946.0,0.0,0.0
15:15:31,779268.0,0.0,0.0
15:15:31,779657.0,0.0,0.0
15:15:31,779674.0,0.0,0.0
15:15:31,779280.0,0.0,0.0
15:15:31,779943.0,0.0,0.0
15:15:31,779252.0,0.0,0.0
15:15:31,779664.0,0.0,0.0
15:15:31,779658.0,0.0,0.0
15:15:31,779198.0,0.0,0.0
15:15:31,779928.0,0.0,0.0
15:15:31,779274.0,0.0,0.0
15:15:31,779669.0,0.0,0.0
15:15:31,779671.0,0.0,0.0
15:15:31,779269.0,0.0,0.0
15:15:31,779924.0,0.0,0.0
15:15:31,779231.0,0.0,0.0
15:15:31,779685.0,0.0,0.0
15:15:31,779669.0,0.0,0.0
15:15:31,779256.0,0.0,0.0
15:15:31,779933.0,0.0,0.0
15:15:31,779248.0,0.0,0.0
15:15:31,779663.0,0.0,0.0
15:15:31,779651.0,0.0,0.0
15:15:31,779225.0,0.0,0.0
15:15:31,779916.0,0.0,0.0
15:15:31,779225.0,0.0,0.0
15:15:31,779611.0,0.0,0.0
15:15:31,779599.0,0.0,0.0
15:15:31,779200.0,0.0,0.0
15:15:31,779863.0,0.0,0.0
15:15:31,779177.0,0.0,0.0
15:15:31,779611.0,0.0,0.0
15:15:31,779578.0,0.0,0.0
15:15:31,779191.0,0.0,0.0
15:15:31,779864.0,0.0,0.0
15:15:31,779190.0,0.0,0.0
15:15:31,779623.0,0.0,0.0
15:15:31,779589.0,0.0,0.0
15:15:31,779179.0,0.0,0.0
15:15:31,779852.0,0.0,0.0
15:15:31,779156.0,0.0,0.0
15:15:31,779606.0,0.0,0.0
15:15:31,779593.0,0.0,0.0
15:15:31,779185.0,0.0,0.0
15:15:31,779869.0,0.0,0.0
15:15:31,779186.0,0.0,0.0
15:15:31,779625.0,0.0,0.0
15:15:31,779583.0,0.0,0.0
15:15:31,779176.0,0.0,0.0
15:15:31,779849.0,0.0,0.0
15:15:31,779197.0,0.0,0.0
15:15:31,779631.0,0.0,0.0
15:15:31,779617.0,0.0,0.0
15:15:31,779196.0,0.0,0.0
15:15:31,779851.0,0.0,0.0
15:15:31,779172.0,0.0,0.0
15:15:31,779595.0,0.0,0.0
15:15:31,779535.0,0.0,0.0
15:15:31,779172.0,0.0,0.0
15:15:31,779854.0,0.0,0.0
15:15:31,779168.0,0.0,0.0
15:15:31,779595.0,0.0,0.0
15:15:31,779518.0,0.0,0.0
15:15:31,779145.0,0.0,0.0
15:15:31,779805.0,0.0,0.0
15:15:31,779111.0,0.0,0.0
15:15:31,779588.0,0.0,0.0
15:15:31,779554.0,0.0,0.0
15:15:31,779123.0,0.0,0.0
15:15:31,779803.0,0.0,0.0
15:15:31,779176.0,0.0,0.0
15:15:31,779654.0,0.0,0.0
15:15:31,779601.0,0.0,0.0
15:15:31,779193.0,0.0,0.0
15:15:31,779839.0,0.0,0.0
15:15:31,779166.0,0.0,0.0
15:15:31,779589.0,0.0,0.0
15:15:31,779568.0,0.0,0.0
15:15:31,779192.0,0.0,0.0
15:15:31,779836.0,0.0,0.0
15:15:31,779163.0,0.0,0.0
15:15:31,779646.0,0.0,0.0
15:15:31,779574.0,0.0,0.0
15:15:31,779203.0,0.0,0.0
15:15:31,779859.0,0.0,0.0
15:15:31,779207.0,0.0,0.0
15:15:31,779611.0,0.0,0.0
15:15:31,779524.0,0.0,0.0
15:15:31,779151.0,0.0,0.0
15:15:31,779732.0,0.0,0.0
15:15:31,779065.0,0.0,0.0
15:15:31,779661.0,0.0,0.0
15:15:31,779705.0,0.0,0.0
15:15:31,779294.0,0.0,0.0
15:15:31,779853.0,0.0,0.0
15:15:31,779109.0,0.0,0.0
15:15:31,779564.0,0.0,0.0
15:15:31,779527.0,0.0,0.0
15:15:31,779195.0,0.0,0.0
15:15:31,779840.0,0.0,0.0
15:15:31,779174.0,0.0,0.0
15:15:31,779629.0,0.0,0.0
15:15:31,779560.0,0.0,0.0
15:15:31,779183.0,0.0,0.0
15:15:31,779819.0,0.0,0.0
15:15:31,779108.0,0.0,0.0
15:15:31,779578.0,0.0,0.0
15:15:31,779544.0,0.0,0.0
15:15:31,779199.0,0.0,0.0
15:15:31,779846.0,0.0,0.0
15:15:31,779078.0,0.0,0.0
15:15:31,779540.0,0.0,0.0
15:15:31,779495.0,0.0,0.0
15:15:31,779138.0,0.0,0.0
15:15:31,779794.0,0.0,0.0
15:15:31,779080.0,0.0,0.0
15:15:32,779509.0,0.0,0.0
15:15:32,779441.0,0.0,0.0
15:15:32,779092.0,0.0,0.0
15:15:32,779732.0,0.0,0.0
15:15:32,779048.0,0.0,0.0
15:15:32,779526.0,0.0,0.0
15:15:32,779450.0,0.0,0.0
15:15:32,779106.0,0.0,0.0
15:15:32,779748.0,0.0,0.0
15:15:32,779051.0,0.0,0.0
15:15:32,779525.0,0.0,0.0
15:15:32,779433.0,0.0,0.0
15:15:32,779098.0,0.0,0.0
15:15:32,779744.0,0.0,0.0
15:15:32,779016.0,0.0,0.0
15:15:32,779488.0,0.0,0.0
15:15:32,779447.0,0.0,0.0
15:15:32,779090.0,0.0,0.0
15:15:32,779708.0,0.0,0.0
15:15:32,779018.0,0.0,0.0
15:15:32,779453.0,0.0,0.0
15:15:32,779384.0,0.0,0.0
15:15:32,779067.0,0.0,0.0
15:15:32,779701.0,0.0,0.0
15:15:32,779010.0,0.0,0.0
15:15:32,779499.0,0.0,0.0
15:15:32,779429.0,0.0,0.0
15:15:32,779068.0,0.0,0.0
15:15:32,779692.0,0.0,0.0
15:15:32,779010.0,0.0,0.0
15:15:32,779459.0,0.0,0.0
15:15:32,779362.0,0.0,0.0
15:15:32,778981.0,0.0,0.0
15:15:32,779649.0,0.0,0.0
15:15:32,778948.0,0.0,0.0
15:15:32,779448.0,0.0,0.0
15:15:32,779366.0,0.0,0.0
15:15:32,779008.0,0.0,0.0
15:15:32,779636.0,0.0,0.0
15:15:32,778930.0,0.0,0.0
15:15:32,779412.0,0.0,0.0
15:15:32,779336.0,0.0,0.0
15:15:32,778976.0,0.0,0.0
15:15:32,779618.0,0.0,0.0
15:15:32,778938.0,0.0,0.0
15:15:32,779428.0,0.0,0.0
15:15:32,779333.0,0.0,0.0
15:15:32,778991.0,0.0,0.0
15:15:32,779634.0,0.0,0.0
15:15:32,778921.0,0.0,0.0
15:15:32,779419.0,0.0,0.0
15:15:32,779321.0,0.0,0.0
15:15:32,778964.0,0.0,0.0
15:15:32,779646.0,0.0,0.0
15:15:32,778941.0,0.0,0.0
15:15:32,779390.0,0.0,0.0
15:15:32,779294.0,0.0,0.0
15:15:32,778953.0,0.0,0.0
15:15:32,779596.0,0.0,0.0
15:15:32,778921.0,0.0,0.0
15:15:32,779399.0,0.0,0.0
15:15:32,779298.0,0.0,0.0
15:15:32,778931.0,0.0,0.0
15:15:32,779570.0,0.0,0.0
15:15:32,778877.0,0.0,0.0
15:15:32,779356.0,0.0,0.0
15:15:32,779234.0,0.0,0.0
15:15:32,778909.0,0.0,0.0
15:15:32,779589.0,0.0,0.0
15:15:32,778893.0,0.0,0.0
15:15:32,779325.0,0.0,0.0
15:15:32,779232.0,0.0,0.0
15:15:32,778919.0,0.0,0.0
15:15:32,779544.0,0.0,0.0
15:15:32,778809.0,0.0,0.0
15:15:32,779291.0,0.0,0.0
15:15:32,779195.0,0.0,0.0
15:15:32,778850.0,0.0,0.0
15:15:32,779406.0,0.0,0.0
15:15:32,778688.0,0.0,0.0
15:15:32,779316.0,0.0,0.0
15:15:32,779325.0,0.0,0.0
15:15:32,779004.0,0.0,0.0
15:15:32,779540.0,0.0,0.0
15:15:32,778756.0,0.0,0.0
15:15:32,779226.0,0.0,0.0
15:15:32,779103.0,0.0,0.0
15:15:32,778836.0,0.0,0.0
15:15:32,779456.0,0.0,0.0
15:15:32,778735.0,0.0,0.0
15:15:32,779221.0,0.0,0.0
15:15:32,779100.0,0.0,0.0
15:15:32,778794.0,0.0,0.0
15:15:32,779409.0,0.0,0.0
15:15:32,778706.0,0.0,0.0
15:15:32,779207.0,0.0,0.0
15:15:32,779085.0,0.0,0.0
15:15:32,778772.0,0.0,0.0
15:15:32,779394.0,0.0,0.0
15:15:32,778678.0,0.0,0.0
15:15:32,779169.0,0.0,0.0
15:15:32,779034.0,0.0,0.0
15:15:32,778668.0,0.0,0.0
15:15:32,779290.0,0.0,0.0
15:15:32,778606.0,0.0,0.0
15:15:32,779094.0,0.0,0.0
15:15:32,778996.0,0.0,0.0
15:15:32,778661.0,0.0,0.0
15:15:32,779285.0,0.0,0.0
15:15:32,778598.0,0.0,0.0
15:15:32,779073.0,0.0,0.0
15:15:32,778970.0,0.0,0.0
15:15:32,778634.0,0.0,0.0
15:15:32,779243.0,0.0,0.0
15:15:32,778546.0,0.0,0.0
15:15:32,779028.0,0.0,0.0
15:15:32,778926.0,0.0,0.0
15:15:32,778595.0,0.0,0.0
15:15:32,779240.0,0.0,0.0
15:15:32,778546.0,0.0,0.0
15:15:32,779021.0,0.0,0.0
15:15:32,778911.0,0.0,0.0
15:15:32,778569.0,0.0,0.0
15:15:32,779153.0,0.0,0.0
15:15:32,778478.0,0.0,0.0
15:15:33,778966.0,0.0,0.0
15:15:33,778826.0,0.0,0.0
15:15:33,778514.0,0.0,0.0
15:15:33,779149.0,0.0,0.0
15:15:33,778498.0,0.0,0.0
15:15:33,778954.0,0.0,0.0
15:15:33,778816.0,0.0,0.0
15:15:33,778510.0,0.0,0.0
15:15:33,779133.0,0.0,0.0
15:15:33,778421.0,0.0,0.0
15:15:33,778912.0,0.0,0.0
15:15:33,778816.0,0.0,0.0
15:15:33,778480.0,0.0,0.0
15:15:33,779104.0,0.0,0.0
15:15:33,778382.0,0.0,0.0
15:15:33,778870.0,0.0,0.0
15:15:33,778745.0,0.0,0.0
15:15:33,778458.0,0.0,0.0
15:15:33,779089.0,0.0,0.0
15:15:33,778378.0,0.0,0.0
15:15:33,778875.0,0.0,0.0
15:15:33,778730.0,0.0,0.0
15:15:33,778398.0,0.0,0.0
15:15:33,779040.0,0.0,0.0
15:15:33,778325.0,0.0,0.0
15:15:33,778829.0,0.0,0.0
15:15:33,778740.0,0.0,0.0
15:15:33,778398.0,0.0,0.0
15:15:33,779009.0,0.0,0.0
15:15:33,778347.0,0.0,0.0
15:15:33,778842.0,0.0,0.0
15:15:33,778681.0,0.0,0.0
15:15:33,778358.0,0.0,0.0
15:15:33,778986.0,0.0,0.0
15:15:33,778290.0,0.0,0.0
15:15:33,778823.0,0.0,0.0
15:15:33,778660.0,0.0,0.0
15:15:33,778339.0,0.0,0.0
15:15:33,778978.0,0.0,0.0
15:15:33,778268.0,0.0,0.0
15:15:33,778800.0,0.0,0.0
15:15:33,778652.0,0.0,0.0
15:15:33,778329.0,0.0,0.0
15:15:33,778988.0,0.0,0.0
15:15:33,778264.0,0.0,0.0
15:15:33,778779.0,0.0,0.0
15:15:33,778651.0,0.0,0.0
15:15:33,778308.0,0.0,0.0
15:15:33,778896.0,0.0,0.0
15:15:33,778204.0,0.0,0.0
15:15:33,778714.0,0.0,0.0
15:15:33,778614.0,0.0,0.0
15:15:33,778293.0,0.0,0.0
15:15:33,778900.0,0.0,0.0
15:15:33,778224.0,0.0,0.0
15:15:33,778740.0,0.0,0.0
15:15:33,778606.0,0.0,0.0
15:15:33,778286.0,0.0,0.0
15:15:33,778901.0,0.0,0.0
15:15:33,778168.0,0.0,0.0
15:15:33,778629.0,0.0,0.0
15:15:33,778471.0,0.0,0.0
15:15:33,778268.0,0.0,0.0
15:15:33,779036.0,0.0,0.0
15:15:33,778371.0,0.0,0.0
15:15:33,778803.0,0.0,0.0
15:15:33,778534.0,0.0,0.0
15:15:33,778205.0,0.0,0.0
15:15:33,778830.0,0.0,0.0
15:15:33,778143.0,0.0,0.0
15:15:33,778636.0,0.0,0.0
15:15:33,778508.0,0.0,0.0
15:15:33,778208.0,0.0,0.0
15:15:33,778822.0,0.0,0.0
15:15:33,778104.0,0.0,0.0
15:15:33,778620.0,0.0,0.0
15:15:33,778481.0,0.0,0.0
15:15:33,778158.0,0.0,0.0
15:15:33,778781.0,0.0,0.0
15:15:33,778062.0,0.0,0.0
15:15:33,778551.0,0.0,0.0
15:15:33,778402.0,0.0,0.0
15:15:33,778087.0,0.0,0.0
15:15:33,778676.0,0.0,0.0
15:15:33,778018.0,0.0,0.0
15:15:33,778510.0,0.0,0.0
15:15:33,778379.0,0.0,0.0
15:15:33,778083.0,0.0,0.0
15:15:33,778668.0,0.0,0.0
15:15:33,777940.0,0.0,0.0
15:15:33,778476.0,0.0,0.0
15:15:33,778332.0,0.0,0.0
15:15:33,778018.0,0.0,0.0
15:15:33,778613.0,0.0,0.0
15:15:33,777936.0,0.0,0.0
15:15:33,778451.0,0.0,0.0
15:15:33,778265.0,0.0,0.0
15:15:33,777968.0,0.0,0.0
15:15:33,778569.0,0.0,0.0
15:15:33,777905.0,0.0,0.0
15:15:33,778401.0,0.0,0.0
15:15:33,778241.0,0.0,0.0
15:15:33,777938.0,0.0,0.0
15:15:33,778504.0,0.0,0.0
15:15:33,777831.0,0.0,0.0
15:15:33,778354.0,0.0,0.0
15:15:33,778167.0,0.0,0.0
15:15:33,777876.0,0.0,0.0
15:15:33,778468.0,0.0,0.0
15:15:33,777791.0,0.0,0.0
15:15:33,778288.0,0.0,0.0
15:15:33,778136.0,0.0,0.0
15:15:33,777849.0,0.0,0.0
15:15:33,778445.0,0.0,0.0
15:15:33,777724.0,0.0,0.0
15:15:33,778248.0,0.0,0.0
15:15:33,778044.0,0.0,0.0
15:15:33,777765.0,0.0,0.0
15:15:33,778360.0,0.0,0.0
15:15:33,777664.0,0.0,0.0
15:15:33,778212.0,0.0,0.0
15:15:33,778027.0,0.0,0.0
15:15:33,777733.0,0.0,0.0
15:15:33,778327.0,0.0,0.0
15:15:33,777633.0,0.0,0.0
15:15:34,778144.0,0.0,0.0
15:15:34,777977.0,0.0,0.0
15:15:34,777674.0,0.0,0.0
15:15:34,778268.0,0.0,0.0
15:15:34,777585.0,0.0,0.0
15:15:34,778100.0,0.0,0.0
15:15:34,777973.0,0.0,0.0
15:15:34,777664.0,0.0,0.0
15:15:34,778251.0,0.0,0.0
15:15:34,777541.0,0.0,0.0
15:15:34,778064.0,0.0,0.0
15:15:34,777951.0,0.0,0.0
15:15:34,777623.0,0.0,0.0
15:15:34,778173.0,0.0,0.0
15:15:34,777509.0,0.0,0.0
15:15:34,778048.0,0.0,0.0
15:15:34,777900.0,0.0,0.0
15:15:34,777611.0,0.0,0.0
15:15:34,778213.0,0.0,0.0
15:15:34,777473.0,0.0,0.0
15:15:34,777991.0,0.0,0.0
15:15:34,777854.0,0.0,0.0
15:15:34,777584.0,0.0,0.0
15:15:34,778152.0,0.0,0.0
15:15:34,777452.0,0.0,0.0
15:15:34,777982.0,0.0,0.0
15:15:34,777831.0,0.0,0.0
15:15:34,777534.0,0.0,0.0
15:15:34,778132.0,0.0,0.0
15:15:34,777431.0,0.0,0.0
15:15:34,777934.0,0.0,0.0
15:15:34,777756.0,0.0,0.0
15:15:34,777489.0,0.0,0.0
15:15:34,778077.0,0.0,0.0
15:15:34,777389.0,0.0,0.0
15:15:34,777941.0,0.0,0.0
15:15:34,777749.0,0.0,0.0
15:15:34,777460.0,0.0,0.0
15:15:34,778084.0,0.0,0.0
15:15:34,777369.0,0.0,0.0
15:15:34,777899.0,0.0,0.0
15:15:34,777669.0,0.0,0.0
15:15:34,777326.0,0.0,0.0
15:15:34,778004.0,0.0,0.0
15:15:34,777494.0,0.0,0.0
15:15:34,778100.0,0.0,0.0
15:15:34,777782.0,0.0,0.0
15:15:34,777432.0,0.0,0.0
15:15:34,778004.0,0.0,0.0
15:15:34,777281.0,0.0,0.0
15:15:34,777821.0,0.0,0.0
15:15:34,777691.0,0.0,0.0
15:15:34,777419.0,0.0,0.0
15:15:34,778015.0,0.0,0.0
15:15:34,777273.0,0.0,0.0
15:15:34,777806.0,0.0,0.0
15:15:34,777648.0,0.0,0.0
15:15:34,777378.0,0.0,0.0
15:15:34,777985.0,0.0,0.0
15:15:34,777272.0,0.0,0.0
15:15:34,777809.0,0.0,0.0
15:15:34,777614.0,0.0,0.0
15:15:34,777332.0,0.0,0.0
15:15:34,777916.0,0.0,0.0
15:15:34,777185.0,0.0,0.0
15:15:34,777702.0,0.0,0.0
15:15:34,777513.0,0.0,0.0
15:15:34,777281.0,0.0,0.0
15:15:34,777871.0,0.0,0.0
15:15:34,777151.0,0.0,0.0
15:15:34,777693.0,0.0,0.0
15:15:34,777500.0,0.0,0.0
15:15:34,777235.0,0.0,0.0
15:15:34,777834.0,0.0,0.0
15:15:34,777085.0,0.0,0.0
15:15:34,777653.0,0.0,0.0
15:15:34,777481.0,0.0,0.0
15:15:34,777226.0,0.0,0.0
15:15:34,777839.0,0.0,0.0
15:15:34,777073.0,0.0,0.0
15:15:34,777589.0,0.0,0.0
15:15:34,777441.0,0.0,0.0
15:15:34,777196.0,0.0,0.0
15:15:34,777791.0,0.0,0.0
15:15:34,777034.0,0.0,0.0
15:15:34,777591.0,0.0,0.0
15:15:34,777432.0,0.0,0.0
15:15:34,777162.0,0.0,0.0
15:15:34,777717.0,0.0,0.0
15:15:34,776999.0,0.0,0.0
15:15:34,777529.0,0.0,0.0
15:15:34,777378.0,0.0,0.0
15:15:34,777122.0,0.0,0.0
15:15:34,777719.0,0.0,0.0
15:15:34,777013.0,0.0,0.0
15:15:34,777523.0,0.0,0.0
15:15:34,777371.0,0.0,0.0
15:15:34,777164.0,0.0,0.0
15:15:34,777751.0,0.0,0.0
15:15:34,777000.0,0.0,0.0
15:15:34,777525.0,0.0,0.0
15:15:34,777386.0,0.0,0.0
15:15:34,777140.0,0.0,0.0
15:15:34,777701.0,0.0,0.0
15:15:34,777004.0,0.0,0.0
15:15:34,777541.0,0.0,0.0
15:15:34,777351.0,0.0,0.0
15:15:34,777092.0,0.0,0.0
15:15:34,777664.0,0.0,0.0
15:15:34,776976.0,0.0,0.0
15:15:34,777546.0,0.0,0.0
15:15:34,777387.0,0.0,0.0
15:15:34,777143.0,0.0,0.0
15:15:34,777708.0,0.0,0.0
15:15:34,776945.0,0.0,0.0
15:15:34,777503.0,0.0,0.0
15:15:34,777341.0,0.0,0.0
15:15:34,777076.0,0.0,0.0
15:15:34,777646.0,0.0,0.0
15:15:34,776936.0,0.0,0.0
15:15:34,777459.0,0.0,0.0
15:15:34,777313.0,0.0,0.0
15:15:34,777061.0,0.0,0.0
15:15:34,777619.0,0.0,0.0
15:15:35,776919.0,0.0,0.0
15:15:35,777474.0,0.0,0.0
15:15:35,777287.0,0.0,0.0
15:15:35,777054.0,0.0,0.0
15:15:35,777624.0,0.0,0.0
15:15:35,776913.0,0.0,0.0
15:15:35,777457.0,0.0,0.0
15:15:35,777258.0,0.0,0.0
15:15:35,777006.0,0.0,0.0
15:15:35,777589.0,0.0,0.0
15:15:35,776903.0,0.0,0.0
15:15:35,777469.0,0.0,0.0
15:15:35,777262.0,0.0,0.0
15:15:35,777008.0,0.0,0.0
15:15:35,777561.0,0.0,0.0
15:15:35,776902.0,0.0,0.0
15:15:35,777390.0,0.0,0.0
15:15:35,777206.0,0.0,0.0
15:15:35,776989.0,0.0,0.0
15:15:35,777538.0,0.0,0.0
15:15:35,776818.0,0.0,0.0
15:15:35,777393.0,0.0,0.0
15:15:35,777151.0,0.0,0.0
15:15:35,776858.0,0.0,0.0
15:15:35,777408.0,0.0,0.0
15:15:35,776805.0,0.0,0.0
15:15:35,777507.0,0.0,0.0
15:15:35,777383.0,0.0,0.0
15:15:35,777029.0,0.0,0.0
15:15:35,777534.0,0.0,0.0
15:15:35,776798.0,0.0,0.0
15:15:35,777329.0,0.0,0.0
15:15:35,777164.0,0.0,0.0
15:15:35,776968.0,0.0,0.0
15:15:35,777561.0,0.0,0.0
15:15:35,776829.0,0.0,0.0
15:15:35,777368.0,0.0,0.0
15:15:35,777182.0,0.0,0.0
15:15:35,776941.0,0.0,0.0
15:15:35,777534.0,0.0,0.0
15:15:35,776824.0,0.0,0.0
15:15:35,777379.0,0.0,0.0
15:15:35,777176.0,0.0,0.0
15:15:35,776941.0,0.0,0.0
15:15:35,777499.0,0.0,0.0
15:15:35,776811.0,0.0,0.0
15:15:35,777348.0,0.0,0.0
15:15:35,777125.0,0.0,0.0
15:15:35,776880.0,0.0,0.0
15:15:35,777457.0,0.0,0.0
15:15:35,776772.0,0.0,0.0
15:15:35,777293.0,0.0,0.0
15:15:35,777124.0,0.0,0.0
15:15:35,776888.0,0.0,0.0
15:15:35,777502.0,0.0,0.0
15:15:35,776757.0,0.0,0.0
15:15:35,777287.0,0.0,0.0
15:15:35,777099.0,0.0,0.0
15:15:35,776851.0,0.0,0.0
15:15:35,777479.0,0.0,0.0
15:15:35,776754.0,0.0,0.0
15:15:35,777274.0,0.0,0.0
15:15:35,777134.0,0.0,0.0
15:15:35,776887.0,0.0,0.0
15:15:35,777448.0,0.0,0.0
15:15:35,776726.0,0.0,0.0
15:15:35,777289.0,0.0,0.0
15:15:35,777080.0,0.0,0.0
15:15:35,776847.0,0.0,0.0
15:15:35,777421.0,0.0,0.0
15:15:35,776721.0,0.0,0.0
15:15:35,777245.0,0.0,0.0
15:15:35,777055.0,0.0,0.0
15:15:35,776841.0,0.0,0.0
15:15:35,777404.0,0.0,0.0
15:15:35,776741.0,0.0,0.0
15:15:35,777319.0,0.0,0.0
15:15:35,777089.0,0.0,0.0
15:15:35,776878.0,0.0,0.0
15:15:35,777434.0,0.0,0.0
15:15:35,776709.0,0.0,0.0
15:15:35,777244.0,0.0,0.0
15:15:35,777035.0,0.0,0.0
15:15:35,776836.0,0.0,0.0
15:15:35,777390.0,0.0,0.0
15:15:35,776718.0,0.0,0.0
15:15:35,777301.0,0.0,0.0
15:15:35,777046.0,0.0,0.0
15:15:35,776802.0,0.0,0.0
15:15:35,777398.0,0.0,0.0
15:15:35,776692.0,0.0,0.0
15:15:35,777239.0,0.0,0.0
15:15:35,777018.0,0.0,0.0
15:15:35,776823.0,0.0,0.0
15:15:35,777403.0,0.0,0.0
15:15:35,776699.0,0.0,0.0
15:15:35,777251.0,0.0,0.0
15:15:35,777044.0,0.0,0.0
15:15:35,776803.0,0.0,0.0
15:15:35,777361.0,0.0,0.0
15:15:35,776683.0,0.0,0.0
15:15:35,777201.0,0.0,0.0
15:15:35,776992.0,0.0,0.0
15:15:35,776833.0,0.0,0.0
15:15:35,777404.0,0.0,0.0
15:15:35,776666.0,0.0,0.0
15:15:35,777224.0,0.0,0.0
15:15:35,777006.0,0.0,0.0
15:15:35,776819.0,0.0,0.0
15:15:35,777360.0,0.0,0.0
15:15:35,776687.0,0.0,0.0
15:15:35,777283.0,0.0,0.0
15:15:35,777055.0,0.0,0.0
15:15:35,776848.0,0.0,0.0
15:15:35,777444.0,0.0,0.0
15:15:35,776689.0,0.0,0.0
15:15:35,777281.0,0.0,0.0
15:15:35,777058.0,0.0,0.0
15:15:35,776861.0,0.0,0.0
15:15:35,777426.0,0.0,0.0
15:15:35,776733.0,0.0,0.0
15:15:35,777256.0,0.0,0.0
15:15:35,777021.0,0.0,0.0
15:15:35,776844.0,0.0,0.0
15:15:35,777413.0,0.0,0.0
15:15:36,776699.0,0.0,0.0
15:15:36,777290.0,0.0,0.0
15:15:36,777033.0,0.0,0.0
15:15:36,776784.0,0.0,0.0
15:15:36,777312.0,0.0,0.0
15:15:36,776733.0,0.0,0.0
15:15:36,777424.0,0.0,0.0
15:15:36,777169.0,0.0,0.0
15:15:36,776897.0,0.0,0.0
15:15:36,777361.0,0.0,0.0
15:15:36,776693.0,0.0,0.0
15:15:36,777288.0,0.0,0.0
15:15:36,777055.0,0.0,0.0
15:15:36,776864.0,0.0,0.0
15:15:36,777438.0,0.0,0.0
15:15:36,776749.0,0.0,0.0
15:15:36,777322.0,0.0,0.0
15:15:36,777081.0,0.0,0.0
15:15:36,776883.0,0.0,0.0
15:15:36,777427.0,0.0,0.0
15:15:36,776747.0,0.0,0.0
15:15:36,777275.0,0.0,0.0
15:15:36,777037.0,0.0,0.0
15:15:36,776843.0,0.0,0.0
15:15:36,777396.0,0.0,0.0
15:15:36,776701.0,0.0,0.0
15:15:36,777231.0,0.0,0.0
15:15:36,777000.0,0.0,0.0
15:15:36,776828.0,0.0,0.0
15:15:36,777370.0,0.0,0.0
15:15:36,776674.0,0.0,0.0
15:15:36,777263.0,0.0,0.0
15:15:36,776979.0,0.0,0.0
15:15:36,776790.0,0.0,0.0
15:15:36,777354.0,0.0,0.0
15:15:36,776686.0,0.0,0.0
15:15:36,777248.0,0.0,0.0
15:15:36,777007.0,0.0,0.0
15:15:36,776806.0,0.0,0.0
15:15:36,777333.0,0.0,0.0
15:15:36,776649.0,0.0,0.0
15:15:36,777249.0,0.0,0.0
15:15:36,776996.0,0.0,0.0
15:15:36,776812.0,0.0,0.0
15:15:36,777353.0,0.0,0.0
15:15:36,776641.0,0.0,0.0
15:15:36,777216.0,0.0,0.0
15:15:36,776978.0,0.0,0.0
15:15:36,776784.0,0.0,0.0
15:15:36,777319.0,0.0,0.0
15:15:36,776624.0,0.0,0.0
15:15:36,777173.0,0.0,0.0
15:15:36,776900.0,0.0,0.0
15:15:36,776771.0,0.0,0.0
15:15:36,777342.0,0.0,0.0
15:15:36,776666.0,0.0,0.0
15:15:36,777228.0,0.0,0.0
15:15:36,777013.0,0.0,0.0
15:15:36,776818.0,0.0,0.0
15:15:36,777335.0,0.0,0.0
15:15:36,776661.0,0.0,0.0
15:15:36,777229.0,0.0,0.0
15:15:36,776985.0,0.0,0.0
15:15:36,776796.0,0.0,0.0
15:15:36,777329.0,0.0,0.0
15:15:36,776621.0,0.0,0.0
15:15:36,777172.0,0.0,0.0
15:15:36,776912.0,0.0,0.0
15:15:36,776764.0,0.0,0.0
15:15:36,777300.0,0.0,0.0
15:15:36,776593.0,0.0,0.0
15:15:36,777151.0,0.0,0.0
15:15:36,776914.0,0.0,0.0
15:15:36,776736.0,0.0,0.0
15:15:36,777262.0,0.0,0.0
15:15:36,776607.0,0.0,0.0
15:15:36,777184.0,0.0,0.0
15:15:36,776946.0,0.0,0.0
15:15:36,776757.0,0.0,0.0
15:15:36,777333.0,0.0,0.0
15:15:36,776651.0,0.0,0.0
15:15:36,777233.0,0.0,0.0
15:15:36,776943.0,0.0,0.0
15:15:36,776773.0,0.0,0.0
15:15:36,777303.0,0.0,0.0
15:15:36,776600.0,0.0,0.0
15:15:36,777175.0,0.0,0.0
15:15:36,776916.0,0.0,0.0
15:15:36,776747.0,0.0,0.0
15:15:36,777271.0,0.0,0.0
15:15:36,776619.0,0.0,0.0
15:15:36,777199.0,0.0,0.0
15:15:36,776944.0,0.0,0.0
15:15:36,776794.0,0.0,0.0
15:15:36,777316.0,0.0,0.0
15:15:36,776630.0,0.0,0.0
15:15:36,777188.0,0.0,0.0
15:15:36,776901.0,0.0,0.0
15:15:36,776768.0,0.0,0.0
15:15:36,777316.0,0.0,0.0
15:15:36,776622.0,0.0,0.0
15:15:36,777190.0,0.0,0.0
15:15:36,776924.0,0.0,0.0
15:15:36,776764.0,0.0,0.0
15:15:36,777309.0,0.0,0.0
15:15:36,776636.0,0.0,0.0
15:15:36,777192.0,0.0,0.0
15:15:36,776906.0,0.0,0.0
15:15:36,776671.0,0.0,0.0
15:15:36,777193.0,0.0,0.0
15:15:36,776669.0,0.0,0.0
15:15:36,777339.0,0.0,0.0
15:15:36,776999.0,0.0,0.0
15:15:36,776753.0,0.0,0.0
15:15:36,777220.0,0.0,0.0
15:15:36,776530.0,0.0,0.0
15:15:36,777143.0,0.0,0.0
15:15:36,776909.0,0.0,0.0
15:15:36,776768.0,0.0,0.0
15:15:36,777256.0,0.0,0.0
15:15:36,776533.0,0.0,0.0
15:15:36,777137.0,0.0,0.0
15:15:36,776874.0,0.0,0.0
15:15:36,776717.0,0.0,0.0
15:15:36,777234.0,0.0,0.0
15:15:37,776534.0,0.0,0.0
15:15:37,777141.0,0.0,0.0
15:15:37,776831.0,0.0,0.0
15:15:37,776671.0,0.0,0.0
15:15:37,777170.0,0.0,0.0
15:15:37,776465.0,0.0,0.0
15:15:37,777061.0,0.0,0.0
15:15:37,776774.0,0.0,0.0
15:15:37,776604.0,0.0,0.0
15:15:37,777124.0,0.0,0.0
15:15:37,776446.0,0.0,0.0
15:15:37,777059.0,0.0,0.0
15:15:37,776752.0,0.0,0.0
15:15:37,776579.0,0.0,0.0
15:15:37,777104.0,0.0,0.0
15:15:37,776421.0,0.0,0.0
15:15:37,776998.0,0.0,0.0
15:15:37,776747.0,0.0,0.0
15:15:37,776575.0,0.0,0.0
15:15:37,777060.0,0.0,0.0
15:15:37,776379.0,0.0,0.0
15:15:37,776996.0,0.0,0.0
15:15:37,776685.0,0.0,0.0
15:15:37,776517.0,0.0,0.0
15:15:37,777017.0,0.0,0.0
15:15:37,776341.0,0.0,0.0
15:15:37,776927.0,0.0,0.0
15:15:37,776646.0,0.0,0.0
15:15:37,776464.0,0.0,0.0
15:15:37,776996.0,0.0,0.0
15:15:37,776313.0,0.0,0.0
15:15:37,776907.0,0.0,0.0
15:15:37,776621.0,0.0,0.0
15:15:37,776467.0,0.0,0.0
15:15:37,776948.0,0.0,0.0
15:15:37,776253.0,0.0,0.0
15:15:37,776864.0,0.0,0.0
15:15:37,776582.0,0.0,0.0
15:15:37,776425.0,0.0,0.0
15:15:37,776939.0,0.0,0.0
15:15:37,776229.0,0.0,0.0
15:15:37,776845.0,0.0,0.0
15:15:37,776531.0,0.0,0.0
15:15:37,776399.0,0.0,0.0
15:15:37,776894.0,0.0,0.0
15:15:37,776208.0,0.0,0.0
15:15:37,776824.0,0.0,0.0
15:15:37,776552.0,0.0,0.0
15:15:37,776413.0,0.0,0.0
15:15:37,776919.0,0.0,0.0
15:15:37,776228.0,0.0,0.0
15:15:37,776841.0,0.0,0.0
15:15:37,776521.0,0.0,0.0
15:15:37,776376.0,0.0,0.0
15:15:37,776884.0,0.0,0.0
15:15:37,776207.0,0.0,0.0
15:15:37,776781.0,0.0,0.0
15:15:37,776507.0,0.0,0.0
15:15:37,776367.0,0.0,0.0
15:15:37,776828.0,0.0,0.0
15:15:37,776133.0,0.0,0.0
15:15:37,776709.0,0.0,0.0
15:15:37,776403.0,0.0,0.0
15:15:37,776276.0,0.0,0.0
15:15:37,776743.0,0.0,0.0
15:15:37,776064.0,0.0,0.0
15:15:37,776646.0,0.0,0.0
15:15:37,776338.0,0.0,0.0
15:15:37,776209.0,0.0,0.0
15:15:37,776718.0,0.0,0.0
15:15:37,776018.0,0.0,0.0
15:15:37,776606.0,0.0,0.0
15:15:37,776299.0,0.0,0.0
15:15:37,776164.0,0.0,0.0
15:15:37,776625.0,0.0,0.0
15:15:37,775924.0,0.0,0.0
15:15:37,776545.0,0.0,0.0
15:15:37,776261.0,0.0,0.0
15:15:37,776123.0,0.0,0.0
15:15:37,776610.0,0.0,0.0
15:15:37,775918.0,0.0,0.0
15:15:37,776534.0,0.0,0.0
15:15:37,776234.0,0.0,0.0
15:15:37,776092.0,0.0,0.0
15:15:37,776543.0,0.0,0.0
15:15:37,775871.0,0.0,0.0
15:15:37,776468.0,0.0,0.0
15:15:37,776144.0,0.0,0.0
15:15:37,775968.0,0.0,0.0
15:15:37,776389.0,0.0,0.0
15:15:37,775681.0,0.0,0.0
15:15:37,776461.0,0.0,0.0
15:15:37,776338.0,0.0,0.0
15:15:37,776138.0,0.0,0.0
15:15:37,776489.0,0.0,0.0
15:15:37,775759.0,0.0,0.0
15:15:37,776357.0,0.0,0.0
15:15:37,776059.0,0.0,0.0
15:15:37,775985.0,0.0,0.0
15:15:37,776483.0,0.0,0.0
15:15:37,775765.0,0.0,0.0
15:15:37,776394.0,0.0,0.0
15:15:37,776056.0,0.0,0.0
15:15:37,775930.0,0.0,0.0
15:15:37,776438.0,0.0,0.0
15:15:37,775707.0,0.0,0.0
15:15:37,776338.0,0.0,0.0
15:15:37,776039.0,0.0,0.0
15:15:37,775907.0,0.0,0.0
15:15:37,776364.0,0.0,0.0
15:15:37,775639.0,0.0,0.0
15:15:37,776261.0,0.0,0.0
15:15:37,775938.0,0.0,0.0
15:15:37,775823.0,0.0,0.0
15:15:37,776289.0,0.0,0.0
15:15:37,775564.0,0.0,0.0
15:15:37,776159.0,0.0,0.0
15:15:37,775856.0,0.0,0.0
15:15:37,775750.0,0.0,0.0
15:15:37,776241.0,0.0,0.0
15:15:37,775526.0,0.0,0.0
15:15:37,776178.0,0.0,0.0
15:15:37,775838.0,0.0,0.0
15:15:37,775732.0,0.0,0.0
15:15:37,776214.0,0.0,0.0
15:15:37,775516.0,0.0,0.0
15:15:38,776115.0,0.0,0.0
15:15:38,775763.0,0.0,0.0
15:15:38,775645.0,0.0,0.0
15:15:38,776110.0,0.0,0.0
15:15:38,775401.0,0.0,0.0
15:15:38,776028.0,0.0,0.0
15:15:38,775663.0,0.0,0.0
15:15:38,775562.0,0.0,0.0
15:15:38,776039.0,0.0,0.0
15:15:38,775324.0,0.0,0.0
15:15:38,775925.0,0.0,0.0
15:15:38,775591.0,0.0,0.0
15:15:38,775499.0,0.0,0.0
15:15:38,775997.0,0.0,0.0
15:15:38,775293.0,0.0,0.0
15:15:38,775913.0,0.0,0.0
15:15:38,775569.0,0.0,0.0
15:15:38,775452.0,0.0,0.0
15:15:38,775929.0,0.0,0.0
15:15:38,775230.0,0.0,0.0
15:15:38,775895.0,0.0,0.0
15:15:38,775562.0,0.0,0.0
15:15:38,775398.0,0.0,0.0
15:15:38,775862.0,0.0,0.0
15:15:38,775176.0,0.0,0.0
15:15:38,775789.0,0.0,0.0
15:15:38,775470.0,0.0,0.0
15:15:38,775396.0,0.0,0.0
15:15:38,775866.0,0.0,0.0
15:15:38,775162.0,0.0,0.0
15:15:38,775758.0,0.0,0.0
15:15:38,775415.0,0.0,0.0
15:15:38,775340.0,0.0,0.0
15:15:38,775779.0,0.0,0.0
15:15:38,775109.0,0.0,0.0
15:15:38,775713.0,0.0,0.0
15:15:38,775354.0,0.0,0.0
15:15:38,775289.0,0.0,0.0
15:15:38,775750.0,0.0,0.0
15:15:38,775079.0,0.0,0.0
15:15:38,775654.0,0.0,0.0
15:15:38,775321.0,0.0,0.0
15:15:38,775252.0,0.0,0.0
15:15:38,775680.0,0.0,0.0
15:15:38,774999.0,0.0,0.0
15:15:38,775643.0,0.0,0.0
15:15:38,775304.0,0.0,0.0
15:15:38,775206.0,0.0,0.0
15:15:38,775661.0,0.0,0.0
15:15:38,774962.0,0.0,0.0
15:15:38,775630.0,0.0,0.0
15:15:38,775309.0,0.0,0.0
15:15:38,775196.0,0.0,0.0
15:15:38,775678.0,0.0,0.0
15:15:38,774986.0,0.0,0.0
15:15:38,775598.0,0.0,0.0
15:15:38,775264.0,0.0,0.0
15:15:38,775130.0,0.0,0.0
15:15:38,775601.0,0.0,0.0
15:15:38,774903.0,0.0,0.0
15:15:38,775546.0,0.0,0.0
15:15:38,775208.0,0.0,0.0
15:15:38,775141.0,0.0,0.0
15:15:38,775623.0,0.0,0.0
15:15:38,774902.0,0.0,0.0
15:15:38,775511.0,0.0,0.0
15:15:38,775210.0,0.0,0.0
15:15:38,775128.0,0.0,0.0
15:15:38,775546.0,0.0,0.0
15:15:38,774878.0,0.0,0.0
15:15:38,775453.0,0.0,0.0
15:15:38,775000.0,0.0,0.0
15:15:38,774985.0,0.0,0.0
15:15:38,775619.0,0.0,0.0
15:15:38,775044.0,0.0,0.0
15:15:38,775545.0,0.0,0.0
15:15:38,775086.0,0.0,0.0
15:15:38,775008.0,0.0,0.0
15:15:38,775510.0,0.0,0.0
15:15:38,774851.0,0.0,0.0
15:15:38,775502.0,0.0,0.0
15:15:38,775193.0,0.0,0.0
15:15:38,775124.0,0.0,0.0
15:15:38,775556.0,0.0,0.0
15:15:38,774848.0,0.0,0.0
15:15:38,775481.0,0.0,0.0
15:15:38,775128.0,0.0,0.0
15:15:38,775036.0,0.0,0.0
15:15:38,775500.0,0.0,0.0
15:15:38,774823.0,0.0,0.0
15:15:38,775437.0,0.0,0.0
15:15:38,775056.0,0.0,0.0
15:15:38,775003.0,0.0,0.0
15:15:38,775425.0,0.0,0.0
15:15:38,774751.0,0.0,0.0
15:15:38,775362.0,0.0,0.0
15:15:38,775029.0,0.0,0.0
15:15:38,774965.0,0.0,0.0
15:15:38,775459.0,0.0,0.0
15:15:38,774764.0,0.0,0.0
15:15:38,775408.0,0.0,0.0
15:15:38,775040.0,0.0,0.0
15:15:38,774939.0,0.0,0.0
15:15:38,775393.0,0.0,0.0
15:15:38,774732.0,0.0,0.0
15:15:38,775348.0,0.0,0.0
15:15:38,774968.0,0.0,0.0
15:15:38,774905.0,0.0,0.0
15:15:38,775335.0,0.0,0.0
15:15:38,774636.0,0.0,0.0
15:15:38,775249.0,0.0,0.0
15:15:38,774862.0,0.0,0.0
15:15:38,774804.0,0.0,0.0
15:15:38,775274.0,0.0,0.0
15:15:38,774582.0,0.0,0.0
15:15:38,775198.0,0.0,0.0
15:15:38,774874.0,0.0,0.0
15:15:38,774799.0,0.0,0.0
15:15:38,775208.0,0.0,0.0
15:15:38,774536.0,0.0,0.0
15:15:38,775131.0,0.0,0.0
15:15:38,774771.0,0.0,0.0
15:15:38,774704.0,0.0,0.0
15:15:38,775174.0,0.0,0.0
15:15:39,774508.0,0.0,0.0
15:15:39,775132.0,0.0,0.0
15:15:39,774753.0,0.0,0.0
15:15:39,774700.0,0.0,0.0
15:15:39,775120.0,0.0,0.0
15:15:39,774474.0,0.0,0.0
15:15:39,775106.0,0.0,0.0
15:15:39,774667.0,0.0,0.0
15:15:39,774601.0,0.0,0.0
15:15:39,775066.0,0.0,0.0
15:15:39,774412.0,0.0,0.0
15:15:39,775021.0,0.0,0.0
15:15:39,774643.0,0.0,0.0
15:15:39,774573.0,0.0,0.0
15:15:39,775005.0,0.0,0.0
15:15:39,774333.0,0.0,0.0
15:15:39,774998.0,0.0,0.0
15:15:39,774599.0,0.0,0.0
15:15:39,774545.0,0.0,0.0
15:15:39,774998.0,0.0,0.0
15:15:39,774361.0,0.0,0.0
15:15:39,774994.0,0.0,0.0
15:15:39,774585.0,0.0,0.0
15:15:39,774559.0,0.0,0.0
15:15:39,774998.0,0.0,0.0
15:15:39,774326.0,0.0,0.0
15:15:39,774956.0,0.0,0.0
15:15:39,774568.0,0.0,0.0
15:15:39,774518.0,0.0,0.0
15:15:39,774944.0,0.0,0.0
15:15:39,774268.0,0.0,0.0
15:15:39,774906.0,0.0,0.0
15:15:39,774516.0,0.0,0.0
15:15:39,774454.0,0.0,0.0
15:15:39,774869.0,0.0,0.0
15:15:39,774217.0,0.0,0.0
15:15:39,774839.0,0.0,0.0
15:15:39,774423.0,0.0,0.0
15:15:39,774369.0,0.0,0.0
15:15:39,774808.0,0.0,0.0
15:15:39,774160.0,0.0,0.0
15:15:39,774833.0,0.0,0.0
15:15:39,774414.0,0.0,0.0
15:15:39,774353.0,0.0,0.0
15:15:39,774762.0,0.0,0.0
15:15:39,774136.0,0.0,0.0
15:15:39,774806.0,0.0,0.0
15:15:39,774385.0,0.0,0.0
15:15:39,774359.0,0.0,0.0
15:15:39,774791.0,0.0,0.0
15:15:39,774140.0,0.0,0.0
15:15:39,774771.0,0.0,0.0
15:15:39,774442.0,0.0,0.0
15:15:39,774367.0,0.0,0.0
15:15:39,774778.0,0.0,0.0
15:15:39,774078.0,0.0,0.0
15:15:39,774680.0,0.0,0.0
15:15:39,774366.0,0.0,0.0
15:15:39,774503.0,0.0,0.0
15:15:39,775031.0,0.0,0.0
15:15:39,774284.0,0.0,0.0
15:15:39,774799.0,0.0,0.0
15:15:39,774387.0,0.0,0.0
15:15:39,774378.0,0.0,0.0
15:15:39,774832.0,0.0,0.0
15:15:39,774174.0,0.0,0.0
15:15:39,774824.0,0.0,0.0
15:15:39,774463.0,0.0,0.0
15:15:39,774442.0,0.0,0.0
15:15:39,774852.0,0.0,0.0
15:15:39,774212.0,0.0,0.0
15:15:39,774886.0,0.0,0.0
15:15:39,774497.0,0.0,0.0
15:15:39,774415.0,0.0,0.0
15:15:39,774839.0,0.0,0.0
15:15:39,774186.0,0.0,0.0
15:15:39,774867.0,0.0,0.0
15:15:39,774471.0,0.0,0.0
15:15:39,774443.0,0.0,0.0
15:15:39,774853.0,0.0,0.0
15:15:39,774200.0,0.0,0.0
15:15:39,774834.0,0.0,0.0
15:15:39,774461.0,0.0,0.0
15:15:39,774453.0,0.0,0.0
15:15:39,774878.0,0.0,0.0
15:15:39,774200.0,0.0,0.0
15:15:39,774878.0,0.0,0.0
15:15:39,774494.0,0.0,0.0
15:15:39,774481.0,0.0,0.0
15:15:39,774868.0,0.0,0.0
15:15:39,774208.0,0.0,0.0
15:15:39,774867.0,0.0,0.0
15:15:39,774471.0,0.0,0.0
15:15:39,774475.0,0.0,0.0
15:15:39,774934.0,0.0,0.0
15:15:39,774250.0,0.0,0.0
15:15:39,774908.0,0.0,0.0
15:15:39,774492.0,0.0,0.0
15:15:39,774478.0,0.0,0.0
15:15:39,774909.0,0.0,0.0
15:15:39,774259.0,0.0,0.0
15:15:39,774881.0,0.0,0.0
15:15:39,774494.0,0.0,0.0
15:15:39,774468.0,0.0,0.0
15:15:39,774899.0,0.0,0.0
15:15:39,774269.0,0.0,0.0
15:15:39,774944.0,0.0,0.0
15:15:39,774550.0,0.0,0.0
15:15:39,774523.0,0.0,0.0
15:15:39,774934.0,0.0,0.0
15:15:39,774248.0,0.0,0.0
15:15:39,774943.0,0.0,0.0
15:15:39,774576.0,0.0,0.0
15:15:39,774556.0,0.0,0.0
15:15:39,774960.0,0.0,0.0
15:15:39,774276.0,0.0,0.0
15:15:39,774949.0,0.0,0.0
15:15:39,774529.0,0.0,0.0
15:15:39,774535.0,0.0,0.0
15:15:39,774974.0,0.0,0.0
15:15:39,774298.0,0.0,0.0
15:15:39,774945.0,0.0,0.0
15:15:39,774551.0,0.0,0.0
15:15:39,774571.0,0.0,0.0
15:15:39,774983.0,0.0,0.0
15:15:40,774338.0,0.0,0.0
15:15:40,774999.0,0.0,0.0
15:15:40,774589.0,0.0,0.0
15:15:40,774594.0,0.0,0.0
15:15:40,774956.0,0.0,0.0
15:15:40,774308.0,0.0,0.0
15:15:40,774974.0,0.0,0.0
15:15:40,774552.0,0.0,0.0
15:15:40,774563.0,0.0,0.0
15:15:40,774974.0,0.0,0.0
15:15:40,774322.0,0.0,0.0
15:15:40,774993.0,0.0,0.0
15:15:40,774589.0,0.0,0.0
15:15:40,774568.0,0.0,0.0
15:15:40,774948.0,0.0,0.0
15:15:40,774311.0,0.0,0.0
15:15:40,774996.0,0.0,0.0
15:15:40,774577.0,0.0,0.0
15:15:40,774603.0,0.0,0.0
15:15:40,775016.0,0.0,0.0
15:15:40,774296.0,0.0,0.0
15:15:40,774965.0,0.0,0.0
15:15:40,774603.0,0.0,0.0
15:15:40,774621.0,0.0,0.0
15:15:40,774999.0,0.0,0.0
15:15:40,774343.0,0.0,0.0
15:15:40,774986.0,0.0,0.0
15:15:40,774606.0,0.0,0.0
15:15:40,774658.0,0.0,0.0
15:15:40,775009.0,0.0,0.0
15:15:40,774369.0,0.0,0.0
15:15:40,775012.0,0.0,0.0
15:15:40,774569.0,0.0,0.0
15:15:40,774602.0,0.0,0.0
15:15:40,774996.0,0.0,0.0
15:15:40,774265.0,0.0,0.0
15:15:40,774933.0,0.0,0.0
15:15:40,774666.0,0.0,0.0
15:15:40,774828.0,0.0,0.0
15:15:40,775163.0,0.0,0.0
15:15:40,774427.0,0.0,0.0
15:15:40,775013.0,0.0,0.0
15:15:40,774571.0,0.0,0.0
15:15:40,774646.0,0.0,0.0
15:15:40,775015.0,0.0,0.0
15:15:40,774399.0,0.0,0.0
15:15:40,775061.0,0.0,0.0
15:15:40,774646.0,0.0,0.0
15:15:40,774657.0,0.0,0.0
15:15:40,775030.0,0.0,0.0
15:15:40,774389.0,0.0,0.0
15:15:40,775058.0,0.0,0.0
15:15:40,774643.0,0.0,0.0
15:15:40,774677.0,0.0,0.0
15:15:40,775086.0,0.0,0.0
15:15:40,774390.0,0.0,0.0
15:15:40,775048.0,0.0,0.0
15:15:40,774605.0,0.0,0.0
15:15:40,774593.0,0.0,0.0
15:15:40,774975.0,0.0,0.0
15:15:40,774334.0,0.0,0.0
15:15:40,774984.0,0.0,0.0
15:15:40,774563.0,0.0,0.0
15:15:40,774594.0,0.0,0.0
15:15:40,774954.0,0.0,0.0
15:15:40,774288.0,0.0,0.0
15:15:40,774964.0,0.0,0.0
15:15:40,774521.0,0.0,0.0
15:15:40,774584.0,0.0,0.0
15:15:40,774963.0,0.0,0.0
15:15:40,774279.0,0.0,0.0
15:15:40,774950.0,0.0,0.0
15:15:40,774531.0,0.0,0.0
15:15:40,774559.0,0.0,0.0
15:15:40,774928.0,0.0,0.0
15:15:40,774286.0,0.0,0.0
15:15:40,774974.0,0.0,0.0
15:15:40,774522.0,0.0,0.0
15:15:40,774538.0,0.0,0.0
15:15:40,774931.0,0.0,0.0
15:15:40,774283.0,0.0,0.0
15:15:40,774905.0,0.0,0.0
15:15:40,774467.0,0.0,0.0
15:15:40,774529.0,0.0,0.0
15:15:40,774945.0,0.0,0.0
15:15:40,774284.0,0.0,0.0
15:15:40,774963.0,0.0,0.0
15:15:40,774550.0,0.0,0.0
15:15:40,774593.0,0.0,0.0
15:15:40,774940.0,0.0,0.0
15:15:40,774254.0,0.0,0.0
15:15:40,774908.0,0.0,0.0
15:15:40,774454.0,0.0,0.0
15:15:40,774503.0,0.0,0.0
15:15:40,774860.0,0.0,0.0
15:15:40,774238.0,0.0,0.0
15:15:40,774904.0,0.0,0.0
15:15:40,774440.0,0.0,0.0
15:15:40,774471.0,0.0,0.0
15:15:40,774856.0,0.0,0.0
15:15:40,774190.0,0.0,0.0
15:15:40,774879.0,0.0,0.0
15:15:40,774417.0,0.0,0.0
15:15:40,774471.0,0.0,0.0
15:15:40,774816.0,0.0,0.0
15:15:40,774196.0,0.0,0.0
15:15:40,774869.0,0.0,0.0
15:15:40,774400.0,0.0,0.0
15:15:40,774403.0,0.0,0.0
15:15:40,774774.0,0.0,0.0
15:15:40,774142.0,0.0,0.0
15:15:40,774784.0,0.0,0.0
15:15:40,774340.0,0.0,0.0
15:15:40,774401.0,0.0,0.0
15:15:40,774783.0,0.0,0.0
15:15:40,774150.0,0.0,0.0
15:15:40,774807.0,0.0,0.0
15:15:40,774346.0,0.0,0.0
15:15:40,774415.0,0.0,0.0
15:15:40,774780.0,0.0,0.0
15:15:40,774145.0,0.0,0.0
15:15:40,774819.0,0.0,0.0
15:15:40,774364.0,0.0,0.0
15:15:40,774421.0,0.0,0.0
15:15:40,774756.0,0.0,0.0
15:15:41,774143.0,0.0,0.0
15:15:41,774784.0,0.0,0.0
15:15:41,774337.0,0.0,0.0
15:15:41,774401.0,0.0,0.0
15:15:41,774730.0,0.0,0.0
15:15:41,774077.0,0.0,0.0
15:15:41,774737.0,0.0,0.0
15:15:41,774288.0,0.0,0.0
15:15:41,774341.0,0.0,0.0
15:15:41,774681.0,0.0,0.0
15:15:41,774023.0,0.0,0.0
15:15:41,774643.0,0.0,0.0
15:15:41,774168.0,0.0,0.0
15:15:41,774203.0,0.0,0.0
15:15:41,774658.0,0.0,0.0
15:15:41,774171.0,0.0,0.0
15:15:41,774821.0,0.0,0.0
15:15:41,774256.0,0.0,0.0
15:15:41,774266.0,0.0,0.0
15:15:41,774579.0,0.0,0.0
15:15:41,773943.0,0.0,0.0
15:15:41,774614.0,0.0,0.0
15:15:41,774226.0,0.0,0.0
15:15:41,774306.0,0.0,0.0
15:15:41,774664.0,0.0,0.0
15:15:41,774041.0,0.0,0.0
15:15:41,774674.0,0.0,0.0
15:15:41,774187.0,0.0,0.0
15:15:41,774266.0,0.0,0.0
15:15:41,774621.0,0.0,0.0
15:15:41,773968.0,0.0,0.0
15:15:41,774644.0,0.0,0.0
15:15:41,774208.0,0.0,0.0
15:15:41,774244.0,0.0,0.0
15:15:41,774568.0,0.0,0.0
15:15:41,773963.0,0.0,0.0
15:15:41,774648.0,0.0,0.0
15:15:41,774069.0,0.0,0.0
15:15:41,774042.0,0.0,0.0
15:15:41,774392.0,0.0,0.0
15:15:41,773748.0,0.0,0.0
15:15:41,774424.0,0.0,0.0
15:15:41,773953.0,0.0,0.0
15:15:41,774015.0,0.0,0.0
15:15:41,774359.0,0.0,0.0
15:15:41,773694.0,0.0,0.0
15:15:41,774357.0,0.0,0.0
15:15:41,773901.0,0.0,0.0
15:15:41,773978.0,0.0,0.0
15:15:41,774296.0,0.0,0.0
15:15:41,773681.0,0.0,0.0
15:15:41,774343.0,0.0,0.0
15:15:41,773850.0,0.0,0.0
15:15:41,773916.0,0.0,0.0
15:15:41,774264.0,0.0,0.0
15:15:41,773624.0,0.0,0.0
15:15:41,774280.0,0.0,0.0
15:15:41,773798.0,0.0,0.0
15:15:41,773862.0,0.0,0.0
15:15:41,774186.0,0.0,0.0
15:15:41,773551.0,0.0,0.0
15:15:41,774249.0,0.0,0.0
15:15:41,773743.0,0.0,0.0
15:15:41,773806.0,0.0,0.0
15:15:41,774143.0,0.0,0.0
15:15:41,773491.0,0.0,0.0
15:15:41,774166.0,0.0,0.0
15:15:41,773680.0,0.0,0.0
15:15:41,773767.0,0.0,0.0
15:15:41,774092.0,0.0,0.0
15:15:41,773451.0,0.0,0.0
15:15:41,774146.0,0.0,0.0
15:15:41,773634.0,0.0,0.0
15:15:41,773723.0,0.0,0.0
15:15:41,774021.0,0.0,0.0
15:15:41,773356.0,0.0,0.0
15:15:41,773997.0,0.0,0.0
15:15:41,773548.0,0.0,0.0
15:15:41,773623.0,0.0,0.0
15:15:41,773944.0,0.0,0.0
15:15:41,773304.0,0.0,0.0
15:15:41,773965.0,0.0,0.0
15:15:41,773496.0,0.0,0.0
15:15:41,773603.0,0.0,0.0
15:15:41,773879.0,0.0,0.0
15:15:41,773248.0,0.0,0.0
15:15:41,773933.0,0.0,0.0
15:15:41,773433.0,0.0,0.0
15:15:41,773516.0,0.0,0.0
15:15:41,773859.0,0.0,0.0
15:15:41,773241.0,0.0,0.0
15:15:41,773893.0,0.0,0.0
15:15:41,773371.0,0.0,0.0
15:15:41,773476.0,0.0,0.0
15:15:41,773776.0,0.0,0.0
15:15:41,773122.0,0.0,0.0
15:15:41,773809.0,0.0,0.0
15:15:41,773313.0,0.0,0.0
15:15:41,773434.0,0.0,0.0
15:15:41,773721.0,0.0,0.0
15:15:41,773081.0,0.0,0.0
15:15:41,773809.0,0.0,0.0
15:15:41,773338.0,0.0,0.0
15:15:41,773413.0,0.0,0.0
15:15:41,773708.0,0.0,0.0
15:15:41,773101.0,0.0,0.0
15:15:41,773759.0,0.0,0.0
15:15:41,773325.0,0.0,0.0
15:15:41,773423.0,0.0,0.0
15:15:41,773726.0,0.0,0.0
15:15:41,773088.0,0.0,0.0
15:15:41,773756.0,0.0,0.0
15:15:41,773246.0,0.0,0.0
15:15:41,773338.0,0.0,0.0
15:15:41,773574.0,0.0,0.0
15:15:41,773044.0,0.0,0.0
15:15:41,773879.0,0.0,0.0
15:15:41,773448.0,0.0,0.0
15:15:41,773441.0,0.0,0.0
15:15:41,773659.0,0.0,0.0
15:15:41,773025.0,0.0,0.0
15:15:41,773687.0,0.0,0.0
15:15:41,773206.0,0.0,0.0
15:15:41,773336.0,0.0,0.0
15:15:41,773612.0,0.0,0.0
15:15:42,773009.0,0.0,0.0
15:15:42,773701.0,0.0,0.0
15:15:42,773169.0,0.0,0.0
15:15:42,773291.0,0.0,0.0
15:15:42,773591.0,0.0,0.0
15:15:42,772979.0,0.0,0.0
15:15:42,773683.0,0.0,0.0
15:15:42,773164.0,0.0,0.0
15:15:42,773309.0,0.0,0.0
15:15:42,773618.0,0.0,0.0
15:15:42,772963.0,0.0,0.0
15:15:42,773588.0,0.0,0.0
15:15:42,773102.0,0.0,0.0
15:15:42,773235.0,0.0,0.0
15:15:42,773539.0,0.0,0.0
15:15:42,772896.0,0.0,0.0
15:15:42,773570.0,0.0,0.0
15:15:42,773063.0,0.0,0.0
15:15:42,773186.0,0.0,0.0
15:15:42,773498.0,0.0,0.0
15:15:42,772884.0,0.0,0.0
15:15:42,773537.0,0.0,0.0
15:15:42,773058.0,0.0,0.0
15:15:42,773177.0,0.0,0.0
15:15:42,773494.0,0.0,0.0
15:15:42,772836.0,0.0,0.0
15:15:42,773486.0,0.0,0.0
15:15:42,772973.0,0.0,0.0
15:15:42,773134.0,0.0,0.0
15:15:42,773410.0,0.0,0.0
15:15:42,772793.0,0.0,0.0
15:15:42,773467.0,0.0,0.0
15:15:42,772995.0,0.0,0.0
15:15:42,773086.0,0.0,0.0
15:15:42,773370.0,0.0,0.0
15:15:42,772741.0,0.0,0.0
15:15:42,773463.0,0.0,0.0
15:15:42,772932.0,0.0,0.0
15:15:42,773064.0,0.0,0.0
15:15:42,773367.0,0.0,0.0
15:15:42,772776.0,0.0,0.0
15:15:42,773437.0,0.0,0.0
15:15:42,772908.0,0.0,0.0
15:15:42,773021.0,0.0,0.0
15:15:42,773338.0,0.0,0.0
15:15:42,772741.0,0.0,0.0
15:15:42,773402.0,0.0,0.0
15:15:42,772868.0,0.0,0.0
15:15:42,773018.0,0.0,0.0
15:15:42,773302.0,0.0,0.0
15:15:42,772685.0,0.0,0.0
15:15:42,773353.0,0.0,0.0
15:15:42,772819.0,0.0,0.0
15:15:42,772959.0,0.0,0.0
15:15:42,773263.0,0.0,0.0
15:15:42,772681.0,0.0,0.0
15:15:42,773349.0,0.0,0.0
15:15:42,772830.0,0.0,0.0
15:15:42,772987.0,0.0,0.0
15:15:42,773259.0,0.0,0.0
15:15:42,772654.0,0.0,0.0
15:15:42,773271.0,0.0,0.0
15:15:42,772786.0,0.0,0.0
15:15:42,772939.0,0.0,0.0
15:15:42,773199.0,0.0,0.0
15:15:42,772611.0,0.0,0.0
15:15:42,773293.0,0.0,0.0
15:15:42,772754.0,0.0,0.0
15:15:42,772931.0,0.0,0.0
15:15:42,773200.0,0.0,0.0
15:15:42,772601.0,0.0,0.0
15:15:42,773273.0,0.0,0.0
15:15:42,772762.0,0.0,0.0
15:15:42,772887.0,0.0,0.0
15:15:42,773186.0,0.0,0.0
15:15:42,772568.0,0.0,0.0
15:15:42,773235.0,0.0,0.0
15:15:42,772713.0,0.0,0.0
15:15:42,772903.0,0.0,0.0
15:15:42,773160.0,0.0,0.0
15:15:42,772578.0,0.0,0.0
15:15:42,773218.0,0.0,0.0
15:15:42,772719.0,0.0,0.0
15:15:42,772861.0,0.0,0.0
15:15:42,773140.0,0.0,0.0
15:15:42,772541.0,0.0,0.0
15:15:42,773191.0,0.0,0.0
15:15:42,772638.0,0.0,0.0
15:15:42,772731.0,0.0,0.0
15:15:42,773048.0,0.0,0.0
15:15:42,772616.0,0.0,0.0
15:15:42,773394.0,0.0,0.0
15:15:42,772793.0,0.0,0.0
15:15:42,772858.0,0.0,0.0
15:15:42,773095.0,0.0,0.0
15:15:42,772468.0,0.0,0.0
15:15:42,773166.0,0.0,0.0
15:15:42,772638.0,0.0,0.0
15:15:42,772804.0,0.0,0.0
15:15:42,773101.0,0.0,0.0
15:15:42,772491.0,0.0,0.0
15:15:42,773172.0,0.0,0.0
15:15:42,772659.0,0.0,0.0
15:15:42,772803.0,0.0,0.0
15:15:42,773079.0,0.0,0.0
15:15:42,772487.0,0.0,0.0
15:15:42,773163.0,0.0,0.0
15:15:42,772634.0,0.0,0.0
15:15:42,772789.0,0.0,0.0
15:15:42,773044.0,0.0,0.0
15:15:42,772428.0,0.0,0.0
15:15:42,773088.0,0.0,0.0
15:15:42,772578.0,0.0,0.0
15:15:42,772738.0,0.0,0.0
15:15:42,772995.0,0.0,0.0
15:15:42,772411.0,0.0,0.0
15:15:42,773079.0,0.0,0.0
15:15:42,772561.0,0.0,0.0
15:15:42,772719.0,0.0,0.0
15:15:42,772971.0,0.0,0.0
15:15:42,772367.0,0.0,0.0
15:15:42,773052.0,0.0,0.0
15:15:42,772518.0,0.0,0.0
15:15:42,772648.0,0.0,0.0
15:15:42,772914.0,0.0,0.0
15:15:43,772308.0,0.0,0.0
15:15:43,773011.0,0.0,0.0
15:15:43,772488.0,0.0,0.0
15:15:43,772670.0,0.0,0.0
15:15:43,772934.0,0.0,0.0
15:15:43,772330.0,0.0,0.0
15:15:43,772995.0,0.0,0.0
15:15:43,772463.0,0.0,0.0
15:15:43,772616.0,0.0,0.0
15:15:43,772895.0,0.0,0.0
15:15:43,772319.0,0.0,0.0
15:15:43,772984.0,0.0,0.0
15:15:43,772444.0,0.0,0.0
15:15:43,772636.0,0.0,0.0
15:15:43,772864.0,0.0,0.0
15:15:43,772281.0,0.0,0.0
15:15:43,772941.0,0.0,0.0
15:15:43,772398.0,0.0,0.0
15:15:43,772581.0,0.0,0.0
15:15:43,772828.0,0.0,0.0
15:15:43,772265.0,0.0,0.0
15:15:43,772947.0,0.0,0.0
15:15:43,772388.0,0.0,0.0
15:15:43,772564.0,0.0,0.0
15:15:43,772833.0,0.0,0.0
15:15:43,772265.0,0.0,0.0
15:15:43,772939.0,0.0,0.0
15:15:43,772403.0,0.0,0.0
15:15:43,772572.0,0.0,0.0
15:15:43,772772.0,0.0,0.0
15:15:43,772189.0,0.0,0.0
15:15:43,772891.0,0.0,0.0
15:15:43,772364.0,0.0,0.0
15:15:43,772561.0,0.0,0.0
15:15:43,772795.0,0.0,0.0
15:15:43,772236.0,0.0,0.0
15:15:43,772934.0,0.0,0.0
15:15:43,772339.0,0.0,0.0
15:15:43,772492.0,0.0,0.0
15:15:43,772764.0,0.0,0.0
15:15:43,772180.0,0.0,0.0
15:15:43,772868.0,0.0,0.0
15:15:43,772323.0,0.0,0.0
15:15:43,772524.0,0.0,0.0
15:15:43,772734.0,0.0,0.0
15:15:43,772164.0,0.0,0.0
15:15:43,772833.0,0.0,0.0
15:15:43,772276.0,0.0,0.0
15:15:43,772455.0,0.0,0.0
15:15:43,772734.0,0.0,0.0
15:15:43,772156.0,0.0,0.0
15:15:43,772819.0,0.0,0.0
15:15:43,772266.0,0.0,0.0
15:15:43,772453.0,0.0,0.0
15:15:43,772661.0,0.0,0.0
15:15:43,772092.0,0.0,0.0
15:15:43,772808.0,0.0,0.0
15:15:43,772266.0,0.0,0.0
15:15:43,772448.0,0.0,0.0
15:15:43,772642.0,0.0,0.0
15:15:43,772072.0,0.0,0.0
15:15:43,772738.0,0.0,0.0
15:15:43,772158.0,0.0,0.0
15:15:43,772333.0,0.0,0.0
15:15:43,772501.0,0.0,0.0
15:15:43,771882.0,0.0,0.0
15:15:43,772692.0,0.0,0.0
15:15:43,772251.0,0.0,0.0
15:15:43,772444.0,0.0,0.0
15:15:43,772589.0,0.0,0.0
15:15:43,771955.0,0.0,0.0
15:15:43,772599.0,0.0,0.0
15:15:43,772053.0,0.0,0.0
15:15:43,772233.0,0.0,0.0
15:15:43,772492.0,0.0,0.0
15:15:43,771955.0,0.0,0.0
15:15:43,772626.0,0.0,0.0
15:15:43,772058.0,0.0,0.0
15:15:43,772243.0,0.0,0.0
15:15:43,772464.0,0.0,0.0
15:15:43,771929.0,0.0,0.0
15:15:43,772608.0,0.0,0.0
15:15:43,772029.0,0.0,0.0
15:15:43,772242.0,0.0,0.0
15:15:43,772473.0,0.0,0.0
15:15:43,771878.0,0.0,0.0
15:15:43,772545.0,0.0,0.0
15:15:43,771993.0,0.0,0.0
15:15:43,772176.0,0.0,0.0
15:15:43,772368.0,0.0,0.0
15:15:43,771816.0,0.0,0.0
15:15:43,772479.0,0.0,0.0
15:15:43,771939.0,0.0,0.0
15:15:43,772144.0,0.0,0.0
15:15:43,772289.0,0.0,0.0
15:15:43,771739.0,0.0,0.0
15:15:43,772458.0,0.0,0.0
15:15:43,771899.0,0.0,0.0
15:15:43,772073.0,0.0,0.0
15:15:43,772301.0,0.0,0.0
15:15:43,771760.0,0.0,0.0
15:15:43,772449.0,0.0,0.0
15:15:43,771878.0,0.0,0.0
15:15:43,772054.0,0.0,0.0
15:15:43,772281.0,0.0,0.0
15:15:43,771722.0,0.0,0.0
15:15:43,772426.0,0.0,0.0
15:15:43,771850.0,0.0,0.0
15:15:43,772038.0,0.0,0.0
15:15:43,772250.0,0.0,0.0
15:15:43,771690.0,0.0,0.0
15:15:43,772354.0,0.0,0.0
15:15:43,771794.0,0.0,0.0
15:15:43,772013.0,0.0,0.0
15:15:43,772201.0,0.0,0.0
15:15:43,771642.0,0.0,0.0
15:15:43,772347.0,0.0,0.0
15:15:43,771812.0,0.0,0.0
15:15:43,772011.0,0.0,0.0
15:15:43,772187.0,0.0,0.0
15:15:43,771584.0,0.0,0.0
15:15:43,772306.0,0.0,0.0
15:15:43,771768.0,0.0,0.0
15:15:43,771964.0,0.0,0.0
15:15:43,772161.0,0.0,0.0
15:15:44,771553.0,0.0,0.0
15:15:44,772244.0,0.0,0.0
15:15:44,771705.0,0.0,0.0
15:15:44,771944.0,0.0,0.0
15:15:44,772157.0,0.0,0.0
15:15:44,771582.0,0.0,0.0
15:15:44,772248.0,0.0,0.0
15:15:44,771693.0,0.0,0.0
15:15:44,771954.0,0.0,0.0
15:15:44,772153.0,0.0,0.0
15:15:44,771578.0,0.0,0.0
15:15:44,772216.0,0.0,0.0
15:15:44,771649.0,0.0,0.0
15:15:44,771915.0,0.0,0.0
15:15:44,772096.0,0.0,0.0
15:15:44,771536.0,0.0,0.0
15:15:44,772199.0,0.0,0.0
15:15:44,771656.0,0.0,0.0
15:15:44,771850.0,0.0,0.0
15:15:44,772051.0,0.0,0.0
15:15:44,771484.0,0.0,0.0
15:15:44,772151.0,0.0,0.0
15:15:44,771608.0,0.0,0.0
15:15:44,771853.0,0.0,0.0
15:15:44,772058.0,0.0,0.0
15:15:44,771529.0,0.0,0.0
15:15:44,772214.0,0.0,0.0
15:15:44,771673.0,0.0,0.0
15:15:44,771886.0,0.0,0.0
15:15:44,772071.0,0.0,0.0
15:15:44,771478.0,0.0,0.0
15:15:44,772171.0,0.0,0.0
15:15:44,771625.0,0.0,0.0
15:15:44,771851.0,0.0,0.0
15:15:44,772061.0,0.0,0.0
15:15:44,771486.0,0.0,0.0
15:15:44,772163.0,0.0,0.0
15:15:44,771626.0,0.0,0.0
15:15:44,771858.0,0.0,0.0
15:15:44,772036.0,0.0,0.0
15:15:44,771513.0,0.0,0.0
15:15:44,772153.0,0.0,0.0
15:15:44,771559.0,0.0,0.0
15:15:44,771841.0,0.0,0.0
15:15:44,772086.0,0.0,0.0
15:15:44,771657.0,0.0,0.0
15:15:44,772329.0,0.0,0.0
15:15:44,771668.0,0.0,0.0
15:15:44,771826.0,0.0,0.0
15:15:44,771979.0,0.0,0.0
15:15:44,771455.0,0.0,0.0
15:15:44,772176.0,0.0,0.0
15:15:44,771629.0,0.0,0.0
15:15:44,771877.0,0.0,0.0
15:15:44,772076.0,0.0,0.0
15:15:44,771513.0,0.0,0.0
15:15:44,772162.0,0.0,0.0
15:15:44,771606.0,0.0,0.0
15:15:44,771833.0,0.0,0.0
15:15:44,772014.0,0.0,0.0
15:15:44,771428.0,0.0,0.0
15:15:44,772113.0,0.0,0.0
15:15:44,771541.0,0.0,0.0
15:15:44,771802.0,0.0,0.0
15:15:44,771946.0,0.0,0.0
15:15:44,771410.0,0.0,0.0
15:15:44,772065.0,0.0,0.0
15:15:44,771485.0,0.0,0.0
15:15:44,771710.0,0.0,0.0
15:15:44,771870.0,0.0,0.0
15:15:44,771373.0,0.0,0.0
15:15:44,772036.0,0.0,0.0
15:15:44,771423.0,0.0,0.0
15:15:44,771696.0,0.0,0.0
15:15:44,771870.0,0.0,0.0
15:15:44,771345.0,0.0,0.0
15:15:44,772027.0,0.0,0.0
15:15:44,771448.0,0.0,0.0
15:15:44,771684.0,0.0,0.0
15:15:44,771858.0,0.0,0.0
15:15:44,771313.0,0.0,0.0
15:15:44,772016.0,0.0,0.0
15:15:44,771451.0,0.0,0.0
15:15:44,771654.0,0.0,0.0
15:15:44,771813.0,0.0,0.0
15:15:44,771293.0,0.0,0.0
15:15:44,771947.0,0.0,0.0
15:15:44,771364.0,0.0,0.0
15:15:44,771641.0,0.0,0.0
15:15:44,771846.0,0.0,0.0
15:15:44,771303.0,0.0,0.0
15:15:44,771943.0,0.0,0.0
15:15:44,771346.0,0.0,0.0
15:15:44,771631.0,0.0,0.0
15:15:44,771833.0,0.0,0.0
15:15:44,771281.0,0.0,0.0
15:15:44,771978.0,0.0,0.0
15:15:44,771401.0,0.0,0.0
15:15:44,771675.0,0.0,0.0
15:15:44,771833.0,0.0,0.0
15:15:44,771323.0,0.0,0.0
15:15:44,771987.0,0.0,0.0
15:15:44,771398.0,0.0,0.0
15:15:44,771715.0,0.0,0.0
15:15:44,771851.0,0.0,0.0
15:15:44,771336.0,0.0,0.0
15:15:44,772018.0,0.0,0.0
15:15:44,771448.0,0.0,0.0
15:15:44,771713.0,0.0,0.0
15:15:44,771863.0,0.0,0.0
15:15:44,771358.0,0.0,0.0
15:15:44,771994.0,0.0,0.0
15:15:44,771401.0,0.0,0.0
15:15:44,771688.0,0.0,0.0
15:15:44,771834.0,0.0,0.0
15:15:44,771344.0,0.0,0.0
15:15:44,772022.0,0.0,0.0
15:15:44,771464.0,0.0,0.0
15:15:44,771749.0,0.0,0.0
15:15:44,771891.0,0.0,0.0
15:15:44,771368.0,0.0,0.0
15:15:44,772041.0,0.0,0.0
15:15:44,771450.0,0.0,0.0
15:15:44,771744.0,0.0,0.0
15:15:44,771884.0,0.0,0.0
15:15:45,771365.0,0.0,0.0
15:15:45,772060.0,0.0,0.0
15:15:45,771481.0,0.0,0.0
15:15:45,771758.0,0.0,0.0
15:15:45,771924.0,0.0,0.0
15:15:45,771418.0,0.0,0.0
15:15:45,772058.0,0.0,0.0
15:15:45,771479.0,0.0,0.0
15:15:45,771775.0,0.0,0.0
15:15:45,771928.0,0.0,0.0
15:15:45,771399.0,0.0,0.0
15:15:45,772078.0,0.0,0.0
15:15:45,771492.0,0.0,0.0
15:15:45,771774.0,0.0,0.0
15:15:45,771911.0,0.0,0.0
15:15:45,771401.0,0.0,0.0
15:15:45,772101.0,0.0,0.0
15:15:45,771483.0,0.0,0.0
15:15:45,771754.0,0.0,0.0
15:15:45,771879.0,0.0,0.0
15:15:45,771348.0,0.0,0.0
15:15:45,772062.0,0.0,0.0
15:15:45,771577.0,0.0,0.0
15:15:45,771993.0,0.0,0.0
15:15:45,772081.0,0.0,0.0
15:15:45,771440.0,0.0,0.0
15:15:45,772083.0,0.0,0.0
15:15:45,771481.0,0.0,0.0
15:15:45,771773.0,0.0,0.0
15:15:45,771950.0,0.0,0.0
15:15:45,771477.0,0.0,0.0
15:15:45,772160.0,0.0,0.0
15:15:45,771543.0,0.0,0.0
15:15:45,771829.0,0.0,0.0
15:15:45,771983.0,0.0,0.0
15:15:45,771484.0,0.0,0.0
15:15:45,772161.0,0.0,0.0
15:15:45,771550.0,0.0,0.0
15:15:45,771868.0,0.0,0.0
15:15:45,772005.0,0.0,0.0
15:15:45,771508.0,0.0,0.0
15:15:45,772149.0,0.0,0.0
15:15:45,771543.0,0.0,0.0
15:15:45,771854.0,0.0,0.0
15:15:45,771971.0,0.0,0.0
15:15:45,771464.0,0.0,0.0
15:15:45,772130.0,0.0,0.0
15:15:45,771518.0,0.0,0.0
15:15:45,771826.0,0.0,0.0
15:15:45,771943.0,0.0,0.0
15:15:45,771458.0,0.0,0.0
15:15:45,772144.0,0.0,0.0
15:15:45,771533.0,0.0,0.0
15:15:45,771796.0,0.0,0.0
15:15:45,771943.0,0.0,0.0
15:15:45,771464.0,0.0,0.0
15:15:45,772131.0,0.0,0.0
15:15:45,771541.0,0.0,0.0
15:15:45,771831.0,0.0,0.0
15:15:45,771954.0,0.0,0.0
15:15:45,771466.0,0.0,0.0
15:15:45,772143.0,0.0,0.0
15:15:45,771522.0,0.0,0.0
15:15:45,771823.0,0.0,0.0
15:15:45,771938.0,0.0,0.0
15:15:45,771486.0,0.0,0.0
15:15:45,772131.0,0.0,0.0
15:15:45,771514.0,0.0,0.0
15:15:45,771812.0,0.0,0.0
15:15:45,771944.0,0.0,0.0
15:15:45,771462.0,0.0,0.0
15:15:45,772142.0,0.0,0.0
15:15:45,771566.0,0.0,0.0
15:15:45,771853.0,0.0,0.0
15:15:45,771932.0,0.0,0.0
15:15:45,771456.0,0.0,0.0
15:15:45,772148.0,0.0,0.0
15:15:45,771539.0,0.0,0.0
15:15:45,771869.0,0.0,0.0
15:15:45,771971.0,0.0,0.0
15:15:45,771531.0,0.0,0.0
15:15:45,772183.0,0.0,0.0
15:15:45,771538.0,0.0,0.0
15:15:45,771872.0,0.0,0.0
15:15:45,771969.0,0.0,0.0
15:15:45,771484.0,0.0,0.0
15:15:45,772149.0,0.0,0.0
15:15:45,771509.0,0.0,0.0
15:15:45,771818.0,0.0,0.0
15:15:45,771976.0,0.0,0.0
15:15:45,771504.0,0.0,0.0
15:15:45,772134.0,0.0,0.0
15:15:45,771502.0,0.0,0.0
15:15:45,771831.0,0.0,0.0
15:15:45,771948.0,0.0,0.0
15:15:45,771439.0,0.0,0.0
15:15:45,772112.0,0.0,0.0
15:15:45,771510.0,0.0,0.0
15:15:45,771812.0,0.0,0.0
15:15:45,771929.0,0.0,0.0
15:15:45,771437.0,0.0,0.0
15:15:45,772121.0,0.0,0.0
15:15:45,771495.0,0.0,0.0
15:15:45,771827.0,0.0,0.0
15:15:45,771942.0,0.0,0.0
15:15:45,771464.0,0.0,0.0
15:15:45,772113.0,0.0,0.0
15:15:45,771523.0,0.0,0.0
15:15:45,771870.0,0.0,0.0
15:15:45,771952.0,0.0,0.0
15:15:45,771482.0,0.0,0.0
15:15:45,772163.0,0.0,0.0
15:15:45,771534.0,0.0,0.0
15:15:45,771878.0,0.0,0.0
15:15:45,771958.0,0.0,0.0
15:15:45,771483.0,0.0,0.0
15:15:45,772154.0,0.0,0.0
15:15:45,771518.0,0.0,0.0
15:15:45,771862.0,0.0,0.0
15:15:45,771964.0,0.0,0.0
15:15:45,771471.0,0.0,0.0
15:15:45,772128.0,0.0,0.0
15:15:45,771449.0,0.0,0.0
15:15:45,771754.0,0.0,0.0
15:15:45,771940.0,0.0,0.0
15:15:46,771628.0,0.0,0.0
15:15:46,772295.0,0.0,0.0
15:15:46,771583.0,0.0,0.0
15:15:46,771844.0,0.0,0.0
15:15:46,771866.0,0.0,0.0
15:15:46,771450.0,0.0,0.0
15:15:46,772143.0,0.0,0.0
15:15:46,771537.0,0.0,0.0
15:15:46,771865.0,0.0,0.0
15:15:46,771922.0,0.0,0.0
15:15:46,771461.0,0.0,0.0
15:15:46,772116.0,0.0,0.0
15:15:46,771510.0,0.0,0.0
15:15:46,771868.0,0.0,0.0
15:15:46,771938.0,0.0,0.0
15:15:46,771490.0,0.0,0.0
15:15:46,772129.0,0.0,0.0
15:15:46,771518.0,0.0,0.0
15:15:46,771864.0,0.0,0.0
15:15:46,771929.0,0.0,0.0
15:15:46,771478.0,0.0,0.0
15:15:46,772085.0,0.0,0.0
15:15:46,771447.0,0.0,0.0
15:15:46,771823.0,0.0,0.0
15:15:46,771872.0,0.0,0.0
15:15:46,771427.0,0.0,0.0
15:15:46,772091.0,0.0,0.0
15:15:46,771451.0,0.0,0.0
15:15:46,771783.0,0.0,0.0
15:15:46,771837.0,0.0,0.0
15:15:46,771412.0,0.0,0.0
15:15:46,772061.0,0.0,0.0
15:15:46,771441.0,0.0,0.0
15:15:46,771809.0,0.0,0.0
15:15:46,771878.0,0.0,0.0
15:15:46,771435.0,0.0,0.0
15:15:46,772070.0,0.0,0.0
15:15:46,771416.0,0.0,0.0
15:15:46,771790.0,0.0,0.0
15:15:46,771858.0,0.0,0.0
15:15:46,771374.0,0.0,0.0
15:15:46,772051.0,0.0,0.0
15:15:46,771418.0,0.0,0.0
15:15:46,771724.0,0.0,0.0
15:15:46,771789.0,0.0,0.0
15:15:46,771372.0,0.0,0.0
15:15:46,772046.0,0.0,0.0
15:15:46,771399.0,0.0,0.0
15:15:46,771768.0,0.0,0.0
15:15:46,771793.0,0.0,0.0
15:15:46,771388.0,0.0,0.0
15:15:46,772036.0,0.0,0.0
15:15:46,771418.0,0.0,0.0
15:15:46,771771.0,0.0,0.0
15:15:46,771790.0,0.0,0.0
15:15:46,771341.0,0.0,0.0
15:15:46,772040.0,0.0,0.0
15:15:46,771391.0,0.0,0.0
15:15:46,771785.0,0.0,0.0
15:15:46,771796.0,0.0,0.0
15:15:46,771347.0,0.0,0.0
15:15:46,772008.0,0.0,0.0
15:15:46,771374.0,0.0,0.0
15:15:46,771739.0,0.0,0.0
15:15:46,771783.0,0.0,0.0
15:15:46,771354.0,0.0,0.0
15:15:46,772011.0,0.0,0.0
15:15:46,771341.0,0.0,0.0
15:15:46,771698.0,0.0,0.0
15:15:46,771768.0,0.0,0.0
15:15:46,771334.0,0.0,0.0
15:15:46,771998.0,0.0,0.0
15:15:46,771356.0,0.0,0.0
15:15:46,771765.0,0.0,0.0
15:15:46,771773.0,0.0,0.0
15:15:46,771334.0,0.0,0.0
15:15:46,771965.0,0.0,0.0
15:15:46,771303.0,0.0,0.0
15:15:46,771674.0,0.0,0.0
15:15:46,771721.0,0.0,0.0
15:15:46,771335.0,0.0,0.0
15:15:46,771989.0,0.0,0.0
15:15:46,771321.0,0.0,0.0
15:15:46,771707.0,0.0,0.0
15:15:46,771758.0,0.0,0.0
15:15:46,771324.0,0.0,0.0
15:15:46,771956.0,0.0,0.0
15:15:46,771294.0,0.0,0.0
15:15:46,771668.0,0.0,0.0
15:15:46,771700.0,0.0,0.0
15:15:46,771301.0,0.0,0.0
15:15:46,771938.0,0.0,0.0
15:15:46,771299.0,0.0,0.0
15:15:46,771718.0,0.0,0.0
15:15:46,771684.0,0.0,0.0
15:15:46,771295.0,0.0,0.0
15:15:46,771925.0,0.0,0.0
15:15:46,771243.0,0.0,0.0
15:15:46,771588.0,0.0,0.0
15:15:46,771554.0,0.0,0.0
15:15:46,771159.0,0.0,0.0
15:15:46,771909.0,0.0,0.0
15:15:46,771391.0,0.0,0.0
15:15:46,771792.0,0.0,0.0
15:15:46,771667.0,0.0,0.0
15:15:46,771207.0,0.0,0.0
15:15:46,771826.0,0.0,0.0
15:15:46,771158.0,0.0,0.0
15:15:46,771599.0,0.0,0.0
15:15:46,771614.0,0.0,0.0
15:15:46,771203.0,0.0,0.0
15:15:46,771832.0,0.0,0.0
15:15:46,771168.0,0.0,0.0
15:15:46,771547.0,0.0,0.0
15:15:46,771537.0,0.0,0.0
15:15:46,771141.0,0.0,0.0
15:15:46,771774.0,0.0,0.0
15:15:46,771128.0,0.0,0.0
15:15:46,771523.0,0.0,0.0
15:15:46,771533.0,0.0,0.0
15:15:46,771154.0,0.0,0.0
15:15:46,771731.0,0.0,0.0
15:15:46,771063.0,0.0,0.0
15:15:46,771453.0,0.0,0.0
15:15:46,771429.0,0.0,0.0
15:15:47,771058.0,0.0,0.0
15:15:47,771680.0,0.0,0.0
15:15:47,771024.0,0.0,0.0
15:15:47,771436.0,0.0,0.0
15:15:47,771433.0,0.0,0.0
15:15:47,771020.0,0.0,0.0
15:15:47,771677.0,0.0,0.0
15:15:47,771043.0,0.0,0.0
15:15:47,771436.0,0.0,0.0
15:15:47,771404.0,0.0,0.0
15:15:47,770968.0,0.0,0.0
15:15:47,771593.0,0.0,0.0
15:15:47,770984.0,0.0,0.0
15:15:47,771386.0,0.0,0.0
15:15:47,771371.0,0.0,0.0
15:15:47,770960.0,0.0,0.0
15:15:47,771639.0,0.0,0.0
15:15:47,770915.0,0.0,0.0
15:15:47,771343.0,0.0,0.0
15:15:47,771299.0,0.0,0.0
15:15:47,770903.0,0.0,0.0
15:15:47,771531.0,0.0,0.0
15:15:47,770873.0,0.0,0.0
15:15:47,771279.0,0.0,0.0
15:15:47,771244.0,0.0,0.0
15:15:47,770898.0,0.0,0.0
15:15:47,771516.0,0.0,0.0
15:15:47,770869.0,0.0,0.0
15:15:47,771282.0,0.0,0.0
15:15:47,771227.0,0.0,0.0
15:15:47,770876.0,0.0,0.0
15:15:47,771499.0,0.0,0.0
15:15:47,770866.0,0.0,0.0
15:15:47,771252.0,0.0,0.0
15:15:47,771184.0,0.0,0.0
15:15:47,770804.0,0.0,0.0
15:15:47,771439.0,0.0,0.0
15:15:47,770795.0,0.0,0.0
15:15:47,771227.0,0.0,0.0
15:15:47,771147.0,0.0,0.0
15:15:47,770753.0,0.0,0.0
15:15:47,771396.0,0.0,0.0
15:15:47,770756.0,0.0,0.0
15:15:47,771169.0,0.0,0.0
15:15:47,771118.0,0.0,0.0
15:15:47,770738.0,0.0,0.0
15:15:47,771359.0,0.0,0.0
15:15:47,770683.0,0.0,0.0
15:15:47,771120.0,0.0,0.0
15:15:47,771076.0,0.0,0.0
15:15:47,770683.0,0.0,0.0
15:15:47,771331.0,0.0,0.0
15:15:47,770708.0,0.0,0.0
15:15:47,771147.0,0.0,0.0
15:15:47,771073.0,0.0,0.0
15:15:47,770683.0,0.0,0.0
15:15:47,771313.0,0.0,0.0
15:15:47,770641.0,0.0,0.0
15:15:47,771065.0,0.0,0.0
15:15:47,771001.0,0.0,0.0
15:15:47,770649.0,0.0,0.0
15:15:47,771279.0,0.0,0.0
15:15:47,770604.0,0.0,0.0
15:15:47,771053.0,0.0,0.0
15:15:47,770991.0,0.0,0.0
15:15:47,770629.0,0.0,0.0
15:15:47,771235.0,0.0,0.0
15:15:47,770579.0,0.0,0.0
15:15:47,771036.0,0.0,0.0
15:15:47,770977.0,0.0,0.0
15:15:47,770639.0,0.0,0.0
15:15:47,771239.0,0.0,0.0
15:15:47,770581.0,0.0,0.0
15:15:47,771012.0,0.0,0.0
15:15:47,770936.0,0.0,0.0
15:15:47,770573.0,0.0,0.0
15:15:47,771189.0,0.0,0.0
15:15:47,770439.0,0.0,0.0
15:15:47,770869.0,0.0,0.0
15:15:47,770883.0,0.0,0.0
15:15:47,770683.0,0.0,0.0
15:15:47,771375.0,0.0,0.0
15:15:47,770556.0,0.0,0.0
15:15:47,770919.0,0.0,0.0
15:15:47,770800.0,0.0,0.0
15:15:47,770454.0,0.0,0.0
15:15:47,771114.0,0.0,0.0
15:15:47,770463.0,0.0,0.0
15:15:47,770938.0,0.0,0.0
15:15:47,770864.0,0.0,0.0
15:15:47,770491.0,0.0,0.0
15:15:47,771103.0,0.0,0.0
15:15:47,770432.0,0.0,0.0
15:15:47,770864.0,0.0,0.0
15:15:47,770786.0,0.0,0.0
15:15:47,770435.0,0.0,0.0
15:15:47,771084.0,0.0,0.0
15:15:47,770389.0,0.0,0.0
15:15:47,770858.0,0.0,0.0
15:15:47,770760.0,0.0,0.0
15:15:47,770353.0,0.0,0.0
15:15:47,770981.0,0.0,0.0
15:15:47,770349.0,0.0,0.0
15:15:47,770793.0,0.0,0.0
15:15:47,770691.0,0.0,0.0
15:15:47,770365.0,0.0,0.0
15:15:47,770999.0,0.0,0.0
15:15:47,770319.0,0.0,0.0
15:15:47,770799.0,0.0,0.0
15:15:47,770694.0,0.0,0.0
15:15:47,770338.0,0.0,0.0
15:15:47,770952.0,0.0,0.0
15:15:47,770299.0,0.0,0.0
15:15:47,770751.0,0.0,0.0
15:15:47,770648.0,0.0,0.0
15:15:47,770347.0,0.0,0.0
15:15:47,770941.0,0.0,0.0
15:15:47,770248.0,0.0,0.0
15:15:47,770737.0,0.0,0.0
15:15:47,770644.0,0.0,0.0
15:15:47,770322.0,0.0,0.0
15:15:47,770919.0,0.0,0.0
15:15:47,770249.0,0.0,0.0
15:15:47,770658.0,0.0,0.0
15:15:47,770586.0,0.0,0.0
15:15:48,770308.0,0.0,0.0
15:15:48,770898.0,0.0,0.0
15:15:48,770252.0,0.0,0.0
15:15:48,770749.0,0.0,0.0
15:15:48,770638.0,0.0,0.0
15:15:48,770341.0,0.0,0.0
15:15:48,770938.0,0.0,0.0
15:15:48,770263.0,0.0,0.0
15:15:48,770721.0,0.0,0.0
15:15:48,770575.0,0.0,0.0
15:15:48,770246.0,0.0,0.0
15:15:48,770809.0,0.0,0.0
15:15:48,770132.0,0.0,0.0
15:15:48,770603.0,0.0,0.0
15:15:48,770493.0,0.0,0.0
15:15:48,770217.0,0.0,0.0
15:15:48,770796.0,0.0,0.0
15:15:48,770097.0,0.0,0.0
15:15:48,770569.0,0.0,0.0
15:15:48,770479.0,0.0,0.0
15:15:48,770209.0,0.0,0.0
15:15:48,770774.0,0.0,0.0
15:15:48,770133.0,0.0,0.0
15:15:48,770597.0,0.0,0.0
15:15:48,770487.0,0.0,0.0
15:15:48,770206.0,0.0,0.0
15:15:48,770803.0,0.0,0.0
15:15:48,770101.0,0.0,0.0
15:15:48,770543.0,0.0,0.0
15:15:48,770374.0,0.0,0.0
15:15:48,770019.0,0.0,0.0
15:15:48,770598.0,0.0,0.0
15:15:48,769936.0,0.0,0.0
15:15:48,770394.0,0.0,0.0
15:15:48,770259.0,0.0,0.0
15:15:48,769935.0,0.0,0.0
15:15:48,770521.0,0.0,0.0
15:15:48,769844.0,0.0,0.0
15:15:48,770349.0,0.0,0.0
15:15:48,770211.0,0.0,0.0
15:15:48,769931.0,0.0,0.0
15:15:48,770514.0,0.0,0.0
15:15:48,769853.0,0.0,0.0
15:15:48,770341.0,0.0,0.0
15:15:48,770249.0,0.0,0.0
15:15:48,769979.0,0.0,0.0
15:15:48,770520.0,0.0,0.0
15:15:48,769880.0,0.0,0.0
15:15:48,770373.0,0.0,0.0
15:15:48,770189.0,0.0,0.0
15:15:48,769948.0,0.0,0.0
15:15:48,770514.0,0.0,0.0
15:15:48,769849.0,0.0,0.0
15:15:48,770345.0,0.0,0.0
15:15:48,770222.0,0.0,0.0
15:15:48,769938.0,0.0,0.0
15:15:48,770477.0,0.0,0.0
15:15:48,769741.0,0.0,0.0
15:15:48,770211.0,0.0,0.0
15:15:48,770130.0,0.0,0.0
15:15:48,770030.0,0.0,0.0
15:15:48,770608.0,0.0,0.0
15:15:48,769796.0,0.0,0.0
15:15:48,770254.0,0.0,0.0
15:15:48,770083.0,0.0,0.0
15:15:48,769813.0,0.0,0.0
15:15:48,770398.0,0.0,0.0
15:15:48,769708.0,0.0,0.0
15:15:48,770228.0,0.0,0.0
15:15:48,770076.0,0.0,0.0
15:15:48,769802.0,0.0,0.0
15:15:48,770374.0,0.0,0.0
15:15:48,769716.0,0.0,0.0
15:15:48,770241.0,0.0,0.0
15:15:48,770086.0,0.0,0.0
15:15:48,769810.0,0.0,0.0
15:15:48,770388.0,0.0,0.0
15:15:48,769671.0,0.0,0.0
15:15:48,770131.0,0.0,0.0
15:15:48,769979.0,0.0,0.0
15:15:48,769718.0,0.0,0.0
15:15:48,770250.0,0.0,0.0
15:15:48,769589.0,0.0,0.0
15:15:48,770064.0,0.0,0.0
15:15:48,769892.0,0.0,0.0
15:15:48,769632.0,0.0,0.0
15:15:48,770189.0,0.0,0.0
15:15:48,769504.0,0.0,0.0
15:15:48,770039.0,0.0,0.0
15:15:48,769849.0,0.0,0.0
15:15:48,769604.0,0.0,0.0
15:15:48,770178.0,0.0,0.0
15:15:48,769511.0,0.0,0.0
15:15:48,769990.0,0.0,0.0
15:15:48,769828.0,0.0,0.0
15:15:48,769578.0,0.0,0.0
15:15:48,770119.0,0.0,0.0
15:15:48,769433.0,0.0,0.0
15:15:48,769951.0,0.0,0.0
15:15:48,769777.0,0.0,0.0
15:15:48,769538.0,0.0,0.0
15:15:48,770081.0,0.0,0.0
15:15:48,769413.0,0.0,0.0
15:15:48,769872.0,0.0,0.0
15:15:48,769684.0,0.0,0.0
15:15:48,769451.0,0.0,0.0
15:15:48,770018.0,0.0,0.0
15:15:48,769381.0,0.0,0.0
15:15:48,769886.0,0.0,0.0
15:15:48,769722.0,0.0,0.0
15:15:48,769491.0,0.0,0.0
15:15:48,770044.0,0.0,0.0
15:15:48,769369.0,0.0,0.0
15:15:48,769894.0,0.0,0.0
15:15:48,769696.0,0.0,0.0
15:15:48,769421.0,0.0,0.0
15:15:48,770029.0,0.0,0.0
15:15:48,769368.0,0.0,0.0
15:15:48,769884.0,0.0,0.0
15:15:48,769656.0,0.0,0.0
15:15:48,769427.0,0.0,0.0
15:15:48,769993.0,0.0,0.0
15:15:48,769314.0,0.0,0.0
15:15:48,769846.0,0.0,0.0
15:15:48,769656.0,0.0,0.0
15:15:49,769427.0,0.0,0.0
15:15:49,769960.0,0.0,0.0
15:15:49,769290.0,0.0,0.0
15:15:49,769838.0,0.0,0.0
15:15:49,769617.0,0.0,0.0
15:15:49,769402.0,0.0,0.0
15:15:49,769964.0,0.0,0.0
15:15:49,769300.0,0.0,0.0
15:15:49,769800.0,0.0,0.0
15:15:49,769621.0,0.0,0.0
15:15:49,769379.0,0.0,0.0
15:15:49,769944.0,0.0,0.0
15:15:49,769270.0,0.0,0.0
15:15:49,769793.0,0.0,0.0
15:15:49,769569.0,0.0,0.0
15:15:49,769379.0,0.0,0.0
15:15:49,769915.0,0.0,0.0
15:15:49,769258.0,0.0,0.0
15:15:49,769820.0,0.0,0.0
15:15:49,769623.0,0.0,0.0
15:15:49,769371.0,0.0,0.0
15:15:49,769908.0,0.0,0.0
15:15:49,769264.0,0.0,0.0
15:15:49,769846.0,0.0,0.0
15:15:49,769627.0,0.0,0.0
15:15:49,769391.0,0.0,0.0
15:15:49,769921.0,0.0,0.0
15:15:49,769273.0,0.0,0.0
15:15:49,769808.0,0.0,0.0
15:15:49,769566.0,0.0,0.0
15:15:49,769376.0,0.0,0.0
15:15:49,769902.0,0.0,0.0
15:15:49,769259.0,0.0,0.0
15:15:49,769839.0,0.0,0.0
15:15:49,769604.0,0.0,0.0
15:15:49,769382.0,0.0,0.0
15:15:49,769913.0,0.0,0.0
15:15:49,769224.0,0.0,0.0
15:15:49,769696.0,0.0,0.0
15:15:49,769504.0,0.0,0.0
15:15:49,769453.0,0.0,0.0
15:15:49,770081.0,0.0,0.0
15:15:49,769361.0,0.0,0.0
15:15:49,769790.0,0.0,0.0
15:15:49,769496.0,0.0,0.0
15:15:49,769313.0,0.0,0.0
15:15:49,769860.0,0.0,0.0
15:15:49,769221.0,0.0,0.0
15:15:49,769794.0,0.0,0.0
15:15:49,769548.0,0.0,0.0
15:15:49,769350.0,0.0,0.0
15:15:49,769844.0,0.0,0.0
15:15:49,769199.0,0.0,0.0
15:15:49,769779.0,0.0,0.0
15:15:49,769526.0,0.0,0.0
15:15:49,769358.0,0.0,0.0
15:15:49,769859.0,0.0,0.0
15:15:49,769176.0,0.0,0.0
15:15:49,769686.0,0.0,0.0
15:15:49,769433.0,0.0,0.0
15:15:49,769242.0,0.0,0.0
15:15:49,769782.0,0.0,0.0
15:15:49,769096.0,0.0,0.0
15:15:49,769654.0,0.0,0.0
15:15:49,769390.0,0.0,0.0
15:15:49,769219.0,0.0,0.0
15:15:49,769758.0,0.0,0.0
15:15:49,769086.0,0.0,0.0
15:15:49,769631.0,0.0,0.0
15:15:49,769403.0,0.0,0.0
15:15:49,769243.0,0.0,0.0
15:15:49,769778.0,0.0,0.0
15:15:49,769116.0,0.0,0.0
15:15:49,769651.0,0.0,0.0
15:15:49,769357.0,0.0,0.0
15:15:49,769193.0,0.0,0.0
15:15:49,769673.0,0.0,0.0
15:15:49,769037.0,0.0,0.0
15:15:49,769615.0,0.0,0.0
15:15:49,769355.0,0.0,0.0
15:15:49,769220.0,0.0,0.0
15:15:49,769725.0,0.0,0.0
15:15:49,769058.0,0.0,0.0
15:15:49,769628.0,0.0,0.0
15:15:49,769341.0,0.0,0.0
15:15:49,769173.0,0.0,0.0
15:15:49,769652.0,0.0,0.0
15:15:49,769013.0,0.0,0.0
15:15:49,769592.0,0.0,0.0
15:15:49,769352.0,0.0,0.0
15:15:49,769180.0,0.0,0.0
15:15:49,769703.0,0.0,0.0
15:15:49,769050.0,0.0,0.0
15:15:49,769607.0,0.0,0.0
15:15:49,769318.0,0.0,0.0
15:15:49,769161.0,0.0,0.0
15:15:49,769647.0,0.0,0.0
15:15:49,768971.0,0.0,0.0
15:15:49,769539.0,0.0,0.0
15:15:49,769297.0,0.0,0.0
15:15:49,769194.0,0.0,0.0
15:15:49,769676.0,0.0,0.0
15:15:49,768997.0,0.0,0.0
15:15:49,769628.0,0.0,0.0
15:15:49,769337.0,0.0,0.0
15:15:49,769191.0,0.0,0.0
15:15:49,769661.0,0.0,0.0
15:15:49,768968.0,0.0,0.0
15:15:49,769584.0,0.0,0.0
15:15:49,769337.0,0.0,0.0
15:15:49,769218.0,0.0,0.0
15:15:49,769691.0,0.0,0.0
15:15:49,769038.0,0.0,0.0
15:15:49,769639.0,0.0,0.0
15:15:49,769393.0,0.0,0.0
15:15:49,769274.0,0.0,0.0
15:15:49,769751.0,0.0,0.0
15:15:49,769093.0,0.0,0.0
15:15:49,769709.0,0.0,0.0
15:15:49,769399.0,0.0,0.0
15:15:49,769232.0,0.0,0.0
15:15:49,769701.0,0.0,0.0
15:15:49,769076.0,0.0,0.0
15:15:49,769648.0,0.0,0.0
15:15:50,769392.0,0.0,0.0
15:15:50,769332.0,0.0,0.0
15:15:50,769813.0,0.0,0.0
15:15:50,769163.0,0.0,0.0
15:15:50,769682.0,0.0,0.0
15:15:50,769405.0,0.0,0.0
15:15:50,769293.0,0.0,0.0
15:15:50,769797.0,0.0,0.0
15:15:50,769143.0,0.0,0.0
15:15:50,769746.0,0.0,0.0
15:15:50,769482.0,0.0,0.0
15:15:50,769373.0,0.0,0.0
15:15:50,769817.0,0.0,0.0
15:15:50,769174.0,0.0,0.0
15:15:50,769748.0,0.0,0.0
15:15:50,769440.0,0.0,0.0
15:15:50,769370.0,0.0,0.0
15:15:50,769795.0,0.0,0.0
15:15:50,769108.0,0.0,0.0
15:15:50,769703.0,0.0,0.0
15:15:50,769490.0,0.0,0.0
15:15:50,769539.0,0.0,0.0
15:15:50,770041.0,0.0,0.0
15:15:50,769295.0,0.0,0.0
15:15:50,769809.0,0.0,0.0
15:15:50,769461.0,0.0,0.0
15:15:50,769420.0,0.0,0.0
15:15:50,769947.0,0.0,0.0
15:15:50,769261.0,0.0,0.0
15:15:50,769857.0,0.0,0.0
15:15:50,769529.0,0.0,0.0
15:15:50,769443.0,0.0,0.0
15:15:50,769891.0,0.0,0.0
15:15:50,769232.0,0.0,0.0
15:15:50,769828.0,0.0,0.0
15:15:50,769459.0,0.0,0.0
15:15:50,769381.0,0.0,0.0
15:15:50,769871.0,0.0,0.0
15:15:50,769186.0,0.0,0.0
15:15:50,769806.0,0.0,0.0
15:15:50,769484.0,0.0,0.0
15:15:50,769365.0,0.0,0.0
15:15:50,769789.0,0.0,0.0
15:15:50,769128.0,0.0,0.0
15:15:50,769758.0,0.0,0.0
15:15:50,769452.0,0.0,0.0
15:15:50,769388.0,0.0,0.0
15:15:50,769854.0,0.0,0.0
15:15:50,769168.0,0.0,0.0
15:15:50,769764.0,0.0,0.0
15:15:50,769414.0,0.0,0.0
15:15:50,769339.0,0.0,0.0
15:15:50,769830.0,0.0,0.0
15:15:50,769153.0,0.0,0.0
15:15:50,769769.0,0.0,0.0
15:15:50,769384.0,0.0,0.0
15:15:50,769339.0,0.0,0.0
15:15:50,769811.0,0.0,0.0
15:15:50,769140.0,0.0,0.0
15:15:50,769777.0,0.0,0.0
15:15:50,769447.0,0.0,0.0
15:15:50,769366.0,0.0,0.0
15:15:50,769819.0,0.0,0.0
15:15:50,769145.0,0.0,0.0
15:15:50,769755.0,0.0,0.0
15:15:50,769383.0,0.0,0.0
15:15:50,769296.0,0.0,0.0
15:15:50,769793.0,0.0,0.0
15:15:50,769133.0,0.0,0.0
15:15:50,769776.0,0.0,0.0
15:15:50,769449.0,0.0,0.0
15:15:50,769401.0,0.0,0.0
15:15:50,769811.0,0.0,0.0
15:15:50,769160.0,0.0,0.0
15:15:50,769816.0,0.0,0.0
15:15:50,769426.0,0.0,0.0
15:15:50,769346.0,0.0,0.0
15:15:50,769783.0,0.0,0.0
15:15:50,769131.0,0.0,0.0
15:15:50,769748.0,0.0,0.0
15:15:50,769382.0,0.0,0.0
15:15:50,769341.0,0.0,0.0
15:15:50,769790.0,0.0,0.0
15:15:50,769169.0,0.0,0.0
15:15:50,769786.0,0.0,0.0
15:15:50,769400.0,0.0,0.0
15:15:50,769344.0,0.0,0.0
15:15:50,769816.0,0.0,0.0
15:15:50,769147.0,0.0,0.0
15:15:50,769779.0,0.0,0.0
15:15:50,769432.0,0.0,0.0
15:15:50,769376.0,0.0,0.0
15:15:50,769824.0,0.0,0.0
15:15:50,769166.0,0.0,0.0
15:15:50,769779.0,0.0,0.0
15:15:50,769393.0,0.0,0.0
15:15:50,769336.0,0.0,0.0
15:15:50,769791.0,0.0,0.0
15:15:50,769108.0,0.0,0.0
15:15:50,769745.0,0.0,0.0
15:15:50,769368.0,0.0,0.0
15:15:50,769356.0,0.0,0.0
15:15:50,769748.0,0.0,0.0
15:15:50,769090.0,0.0,0.0
15:15:50,769776.0,0.0,0.0
15:15:50,769377.0,0.0,0.0
15:15:50,769353.0,0.0,0.0
15:15:50,769759.0,0.0,0.0
15:15:50,769101.0,0.0,0.0
15:15:50,769780.0,0.0,0.0
15:15:50,769369.0,0.0,0.0
15:15:50,769349.0,0.0,0.0
15:15:50,769772.0,0.0,0.0
15:15:50,769084.0,0.0,0.0
15:15:50,769747.0,0.0,0.0
15:15:50,769363.0,0.0,0.0
15:15:50,769309.0,0.0,0.0
15:15:50,769712.0,0.0,0.0
15:15:50,769093.0,0.0,0.0
15:15:50,769746.0,0.0,0.0
15:15:50,769329.0,0.0,0.0
15:15:50,769301.0,0.0,0.0
15:15:50,769636.0,0.0,0.0
15:15:50,768988.0,0.0,0.0
15:15:50,769816.0,0.0,0.0
15:15:50,769504.0,0.0,0.0
15:15:51,769406.0,0.0,0.0
15:15:51,769679.0,0.0,0.0
15:15:51,768986.0,0.0,0.0
15:15:51,769671.0,0.0,0.0
15:15:51,769306.0,0.0,0.0
15:15:51,769316.0,0.0,0.0
15:15:51,769718.0,0.0,0.0
15:15:51,768996.0,0.0,0.0
15:15:51,769636.0,0.0,0.0
15:15:51,769246.0,0.0,0.0
15:15:51,769243.0,0.0,0.0
15:15:51,769604.0,0.0,0.0
15:15:51,768986.0,0.0,0.0
15:15:51,769652.0,0.0,0.0
15:15:51,769202.0,0.0,0.0
15:15:51,769198.0,0.0,0.0
15:15:51,769562.0,0.0,0.0
15:15:51,768888.0,0.0,0.0
15:15:51,769577.0,0.0,0.0
15:15:51,769192.0,0.0,0.0
15:15:51,769159.0,0.0,0.0
15:15:51,769543.0,0.0,0.0
15:15:51,768877.0,0.0,0.0
15:15:51,769558.0,0.0,0.0
15:15:51,769136.0,0.0,0.0
15:15:51,769124.0,0.0,0.0
15:15:51,769498.0,0.0,0.0
15:15:51,768836.0,0.0,0.0
15:15:51,769458.0,0.0,0.0
15:15:51,769067.0,0.0,0.0
15:15:51,769084.0,0.0,0.0
15:15:51,769486.0,0.0,0.0
15:15:51,768796.0,0.0,0.0
15:15:51,769414.0,0.0,0.0
15:15:51,769014.0,0.0,0.0
15:15:51,769064.0,0.0,0.0
15:15:51,769448.0,0.0,0.0
15:15:51,768782.0,0.0,0.0
15:15:51,769453.0,0.0,0.0
15:15:51,769010.0,0.0,0.0
15:15:51,769019.0,0.0,0.0
15:15:51,769380.0,0.0,0.0
15:15:51,768748.0,0.0,0.0
15:15:51,769423.0,0.0,0.0
15:15:51,769014.0,0.0,0.0
15:15:51,769034.0,0.0,0.0
15:15:51,769377.0,0.0,0.0
15:15:51,768758.0,0.0,0.0
15:15:51,769455.0,0.0,0.0
15:15:51,769004.0,0.0,0.0
15:15:51,769017.0,0.0,0.0
15:15:51,769386.0,0.0,0.0
15:15:51,768763.0,0.0,0.0
15:15:51,769401.0,0.0,0.0
15:15:51,768982.0,0.0,0.0
15:15:51,769043.0,0.0,0.0
15:15:51,769391.0,0.0,0.0
15:15:51,768728.0,0.0,0.0
15:15:51,769405.0,0.0,0.0
15:15:51,768932.0,0.0,0.0
15:15:51,768991.0,0.0,0.0
15:15:51,769348.0,0.0,0.0
15:15:51,768698.0,0.0,0.0
15:15:51,769343.0,0.0,0.0
15:15:51,768925.0,0.0,0.0
15:15:51,769015.0,0.0,0.0
15:15:51,769381.0,0.0,0.0
15:15:51,768711.0,0.0,0.0
15:15:51,769370.0,0.0,0.0
15:15:51,768927.0,0.0,0.0
15:15:51,768967.0,0.0,0.0
15:15:51,769343.0,0.0,0.0
15:15:51,768716.0,0.0,0.0
15:15:51,769338.0,0.0,0.0
15:15:51,768863.0,0.0,0.0
15:15:51,768961.0,0.0,0.0
15:15:51,769296.0,0.0,0.0
15:15:51,768638.0,0.0,0.0
15:15:51,769280.0,0.0,0.0
15:15:51,768811.0,0.0,0.0
15:15:51,768881.0,0.0,0.0
15:15:51,769228.0,0.0,0.0
15:15:51,768619.0,0.0,0.0
15:15:51,769291.0,0.0,0.0
15:15:51,768794.0,0.0,0.0
15:15:51,768901.0,0.0,0.0
15:15:51,769216.0,0.0,0.0
15:15:51,768571.0,0.0,0.0
15:15:51,769244.0,0.0,0.0
15:15:51,768780.0,0.0,0.0
15:15:51,768877.0,0.0,0.0
15:15:51,769184.0,0.0,0.0
15:15:51,768566.0,0.0,0.0
15:15:51,769231.0,0.0,0.0
15:15:51,768738.0,0.0,0.0
15:15:51,768827.0,0.0,0.0
15:15:51,769182.0,0.0,0.0
15:15:51,768545.0,0.0,0.0
15:15:51,769213.0,0.0,0.0
15:15:51,768711.0,0.0,0.0
15:15:51,768744.0,0.0,0.0
15:15:51,769014.0,0.0,0.0
15:15:51,768467.0,0.0,0.0
15:15:51,769293.0,0.0,0.0
15:15:51,768881.0,0.0,0.0
15:15:51,768876.0,0.0,0.0
15:15:51,769072.0,0.0,0.0
15:15:51,768444.0,0.0,0.0
15:15:51,769167.0,0.0,0.0
15:15:51,768664.0,0.0,0.0
15:15:51,768753.0,0.0,0.0
15:15:51,769082.0,0.0,0.0
15:15:51,768489.0,0.0,0.0
15:15:51,769127.0,0.0,0.0
15:15:51,768614.0,0.0,0.0
15:15:51,768710.0,0.0,0.0
15:15:51,769022.0,0.0,0.0
15:15:51,768458.0,0.0,0.0
15:15:51,769147.0,0.0,0.0
15:15:51,768616.0,0.0,0.0
15:15:51,768724.0,0.0,0.0
15:15:51,769003.0,0.0,0.0
15:15:51,768377.0,0.0,0.0
15:15:51,769045.0,0.0,0.0
15:15:51,768548.0,0.0,0.0
15:15:52,768621.0,0.0,0.0
15:15:52,768907.0,0.0,0.0
15:15:52,768257.0,0.0,0.0
15:15:52,768973.0,0.0,0.0
15:15:52,768475.0,0.0,0.0
15:15:52,768588.0,0.0,0.0
15:15:52,768903.0,0.0,0.0
15:15:52,768257.0,0.0,0.0
15:15:52,768908.0,0.0,0.0
15:15:52,768452.0,0.0,0.0
15:15:52,768552.0,0.0,0.0
15:15:52,768823.0,0.0,0.0
15:15:52,768203.0,0.0,0.0
15:15:52,768888.0,0.0,0.0
15:15:52,768364.0,0.0,0.0
15:15:52,768491.0,0.0,0.0
15:15:52,768764.0,0.0,0.0
15:15:52,768154.0,0.0,0.0
15:15:52,768831.0,0.0,0.0
15:15:52,768283.0,0.0,0.0
15:15:52,768403.0,0.0,0.0
15:15:52,768684.0,0.0,0.0
15:15:52,768100.0,0.0,0.0
15:15:52,768761.0,0.0,0.0
15:15:52,768222.0,0.0,0.0
15:15:52,768347.0,0.0,0.0
15:15:52,768589.0,0.0,0.0
15:15:52,768017.0,0.0,0.0
15:15:52,768719.0,0.0,0.0
15:15:52,768189.0,0.0,0.0
15:15:52,768339.0,0.0,0.0
15:15:52,768568.0,0.0,0.0
15:15:52,767981.0,0.0,0.0
15:15:52,768681.0,0.0,0.0
15:15:52,768140.0,0.0,0.0
15:15:52,768289.0,0.0,0.0
15:15:52,768517.0,0.0,0.0
15:15:52,767912.0,0.0,0.0
15:15:52,768598.0,0.0,0.0
15:15:52,768078.0,0.0,0.0
15:15:52,768228.0,0.0,0.0
15:15:52,768472.0,0.0,0.0
15:15:52,767915.0,0.0,0.0
15:15:52,768575.0,0.0,0.0
15:15:52,768054.0,0.0,0.0
15:15:52,768203.0,0.0,0.0
15:15:52,768430.0,0.0,0.0
15:15:52,767841.0,0.0,0.0
15:15:52,768555.0,0.0,0.0
15:15:52,768036.0,0.0,0.0
15:15:52,768188.0,0.0,0.0
15:15:52,768416.0,0.0,0.0
15:15:52,767808.0,0.0,0.0
15:15:52,768486.0,0.0,0.0
15:15:52,768016.0,0.0,0.0
15:15:52,768209.0,0.0,0.0
15:15:52,768393.0,0.0,0.0
15:15:52,767806.0,0.0,0.0
15:15:52,768514.0,0.0,0.0
15:15:52,767961.0,0.0,0.0
15:15:52,768146.0,0.0,0.0
15:15:52,768380.0,0.0,0.0
15:15:52,767801.0,0.0,0.0
15:15:52,768504.0,0.0,0.0
15:15:52,767953.0,0.0,0.0
15:15:52,768175.0,0.0,0.0
15:15:52,768374.0,0.0,0.0
15:15:52,767806.0,0.0,0.0
15:15:52,768468.0,0.0,0.0
15:15:52,767928.0,0.0,0.0
15:15:52,768151.0,0.0,0.0
15:15:52,768321.0,0.0,0.0
15:15:52,767764.0,0.0,0.0
15:15:52,768485.0,0.0,0.0
15:15:52,767935.0,0.0,0.0
15:15:52,768108.0,0.0,0.0
15:15:52,768329.0,0.0,0.0
15:15:52,767776.0,0.0,0.0
15:15:52,768475.0,0.0,0.0
15:15:52,767902.0,0.0,0.0
15:15:52,768095.0,0.0,0.0
15:15:52,768316.0,0.0,0.0
15:15:52,767732.0,0.0,0.0
15:15:52,768351.0,0.0,0.0
15:15:52,767778.0,0.0,0.0
15:15:52,768120.0,0.0,0.0
15:15:52,768504.0,0.0,0.0
15:15:52,767895.0,0.0,0.0
15:15:52,768448.0,0.0,0.0
15:15:52,767836.0,0.0,0.0
15:15:52,768044.0,0.0,0.0
15:15:52,768287.0,0.0,0.0
15:15:52,767736.0,0.0,0.0
15:15:52,768396.0,0.0,0.0
15:15:52,767854.0,0.0,0.0
15:15:52,768102.0,0.0,0.0
15:15:52,768276.0,0.0,0.0
15:15:52,767743.0,0.0,0.0
15:15:52,768421.0,0.0,0.0
15:15:52,767816.0,0.0,0.0
15:15:52,768055.0,0.0,0.0
15:15:52,768253.0,0.0,0.0
15:15:52,767698.0,0.0,0.0
15:15:52,768378.0,0.0,0.0
15:15:52,767782.0,0.0,0.0
15:15:52,768004.0,0.0,0.0
15:15:52,768194.0,0.0,0.0
15:15:52,767643.0,0.0,0.0
15:15:52,768324.0,0.0,0.0
15:15:52,767740.0,0.0,0.0
15:15:52,767982.0,0.0,0.0
15:15:52,768140.0,0.0,0.0
15:15:52,767595.0,0.0,0.0
15:15:52,768296.0,0.0,0.0
15:15:52,767728.0,0.0,0.0
15:15:52,767964.0,0.0,0.0
15:15:52,768126.0,0.0,0.0
15:15:52,767579.0,0.0,0.0
15:15:52,768219.0,0.0,0.0
15:15:52,767657.0,0.0,0.0
15:15:52,767896.0,0.0,0.0
15:15:52,768081.0,0.0,0.0
15:15:52,767591.0,0.0,0.0
15:15:52,768244.0,0.0,0.0
15:15:52,767651.0,0.0,0.0
15:15:53,767946.0,0.0,0.0
15:15:53,768100.0,0.0,0.0
15:15:53,767558.0,0.0,0.0
15:15:53,768235.0,0.0,0.0
15:15:53,767649.0,0.0,0.0
15:15:53,767873.0,0.0,0.0
15:15:53,768028.0,0.0,0.0
15:15:53,767490.0,0.0,0.0
15:15:53,768167.0,0.0,0.0
15:15:53,767600.0,0.0,0.0
15:15:53,767861.0,0.0,0.0
15:15:53,767961.0,0.0,0.0
15:15:53,767474.0,0.0,0.0
15:15:53,768140.0,0.0,0.0
15:15:53,767514.0,0.0,0.0
15:15:53,767773.0,0.0,0.0
15:15:53,767919.0,0.0,0.0
15:15:53,767394.0,0.0,0.0
15:15:53,768091.0,0.0,0.0
15:15:53,767491.0,0.0,0.0
15:15:53,767734.0,0.0,0.0
15:15:53,767917.0,0.0,0.0
15:15:53,767432.0,0.0,0.0
15:15:53,768056.0,0.0,0.0
15:15:53,767442.0,0.0,0.0
15:15:53,767751.0,0.0,0.0
15:15:53,767896.0,0.0,0.0
15:15:53,767373.0,0.0,0.0
15:15:53,768038.0,0.0,0.0
15:15:53,767429.0,0.0,0.0
15:15:53,767711.0,0.0,0.0
15:15:53,767845.0,0.0,0.0
15:15:53,767354.0,0.0,0.0
15:15:53,768039.0,0.0,0.0
15:15:53,767430.0,0.0,0.0
15:15:53,767713.0,0.0,0.0
15:15:53,767871.0,0.0,0.0
15:15:53,767363.0,0.0,0.0
15:15:53,768053.0,0.0,0.0
15:15:53,767439.0,0.0,0.0
15:15:53,767717.0,0.0,0.0
15:15:53,767814.0,0.0,0.0
15:15:53,767319.0,0.0,0.0
15:15:53,768022.0,0.0,0.0
15:15:53,767388.0,0.0,0.0
15:15:53,767681.0,0.0,0.0
15:15:53,767779.0,0.0,0.0
15:15:53,767276.0,0.0,0.0
15:15:53,767977.0,0.0,0.0
15:15:53,767357.0,0.0,0.0
15:15:53,767661.0,0.0,0.0
15:15:53,767775.0,0.0,0.0
15:15:53,767304.0,0.0,0.0
15:15:53,767996.0,0.0,0.0
15:15:53,767353.0,0.0,0.0
15:15:53,767683.0,0.0,0.0
15:15:53,767784.0,0.0,0.0
15:15:53,767274.0,0.0,0.0
15:15:53,767959.0,0.0,0.0
15:15:53,767354.0,0.0,0.0
15:15:53,767676.0,0.0,0.0
15:15:53,767727.0,0.0,0.0
15:15:53,767253.0,0.0,0.0
15:15:53,767933.0,0.0,0.0
15:15:53,767360.0,0.0,0.0
15:15:53,767671.0,0.0,0.0
15:15:53,767719.0,0.0,0.0
15:15:53,767201.0,0.0,0.0
15:15:53,767859.0,0.0,0.0
15:15:53,767240.0,0.0,0.0
15:15:53,767655.0,0.0,0.0
15:15:53,767851.0,0.0,0.0
15:15:53,767400.0,0.0,0.0
15:15:53,767940.0,0.0,0.0
15:15:53,767268.0,0.0,0.0
15:15:53,767591.0,0.0,0.0
15:15:53,767668.0,0.0,0.0
15:15:53,767224.0,0.0,0.0
15:15:53,767928.0,0.0,0.0
15:15:53,767304.0,0.0,0.0
15:15:53,767656.0,0.0,0.0
15:15:53,767699.0,0.0,0.0
15:15:53,767201.0,0.0,0.0
15:15:53,767852.0,0.0,0.0
15:15:53,767253.0,0.0,0.0
15:15:53,767585.0,0.0,0.0
15:15:53,767659.0,0.0,0.0
15:15:53,767164.0,0.0,0.0
15:15:53,767809.0,0.0,0.0
15:15:53,767174.0,0.0,0.0
15:15:53,767510.0,0.0,0.0
15:15:53,767551.0,0.0,0.0
15:15:53,767091.0,0.0,0.0
15:15:53,767747.0,0.0,0.0
15:15:53,767120.0,0.0,0.0
15:15:53,767465.0,0.0,0.0
15:15:53,767527.0,0.0,0.0
15:15:53,767085.0,0.0,0.0
15:15:53,767714.0,0.0,0.0
15:15:53,767073.0,0.0,0.0
15:15:53,767443.0,0.0,0.0
15:15:53,767482.0,0.0,0.0
15:15:53,767018.0,0.0,0.0
15:15:53,767704.0,0.0,0.0
15:15:53,767054.0,0.0,0.0
15:15:53,767413.0,0.0,0.0
15:15:53,767461.0,0.0,0.0
15:15:53,767024.0,0.0,0.0
15:15:53,767674.0,0.0,0.0
15:15:53,767031.0,0.0,0.0
15:15:53,767388.0,0.0,0.0
15:15:53,767447.0,0.0,0.0
15:15:53,766999.0,0.0,0.0
15:15:53,767639.0,0.0,0.0
15:15:53,767011.0,0.0,0.0
15:15:53,767360.0,0.0,0.0
15:15:53,767394.0,0.0,0.0
15:15:53,766983.0,0.0,0.0
15:15:53,767643.0,0.0,0.0
15:15:53,766980.0,0.0,0.0
15:15:53,767363.0,0.0,0.0
15:15:53,767372.0,0.0,0.0
15:15:53,766912.0,0.0,0.0
15:15:53,767592.0,0.0,0.0
15:15:54,766966.0,0.0,0.0
15:15:54,767318.0,0.0,0.0
15:15:54,767341.0,0.0,0.0
15:15:54,766894.0,0.0,0.0
15:15:54,767568.0,0.0,0.0
15:15:54,766882.0,0.0,0.0
15:15:54,767284.0,0.0,0.0
15:15:54,767341.0,0.0,0.0
15:15:54,766909.0,0.0,0.0
15:15:54,767548.0,0.0,0.0
15:15:54,766880.0,0.0,0.0
15:15:54,767287.0,0.0,0.0
15:15:54,767309.0,0.0,0.0
15:15:54,766900.0,0.0,0.0
15:15:54,767541.0,0.0,0.0
15:15:54,766876.0,0.0,0.0
15:15:54,767236.0,0.0,0.0
15:15:54,767220.0,0.0,0.0
15:15:54,766803.0,0.0,0.0
15:15:54,767477.0,0.0,0.0
15:15:54,766824.0,0.0,0.0
15:15:54,767226.0,0.0,0.0
15:15:54,767214.0,0.0,0.0
15:15:54,766816.0,0.0,0.0
15:15:54,767443.0,0.0,0.0
15:15:54,766809.0,0.0,0.0
15:15:54,767211.0,0.0,0.0
15:15:54,767228.0,0.0,0.0
15:15:54,766806.0,0.0,0.0
15:15:54,767436.0,0.0,0.0
15:15:54,766783.0,0.0,0.0
15:15:54,767185.0,0.0,0.0
15:15:54,767186.0,0.0,0.0
15:15:54,766814.0,0.0,0.0
15:15:54,767438.0,0.0,0.0
15:15:54,766775.0,0.0,0.0
15:15:54,767173.0,0.0,0.0
15:15:54,767163.0,0.0,0.0
15:15:54,766811.0,0.0,0.0
15:15:54,767461.0,0.0,0.0
15:15:54,766808.0,0.0,0.0
15:15:54,767193.0,0.0,0.0
15:15:54,767183.0,0.0,0.0
15:15:54,766765.0,0.0,0.0
15:15:54,767419.0,0.0,0.0
15:15:54,766804.0,0.0,0.0
15:15:54,767213.0,0.0,0.0
15:15:54,767182.0,0.0,0.0
15:15:54,766800.0,0.0,0.0
15:15:54,767477.0,0.0,0.0
15:15:54,766822.0,0.0,0.0
15:15:54,767241.0,0.0,0.0
15:15:54,767213.0,0.0,0.0
15:15:54,766818.0,0.0,0.0
15:15:54,767435.0,0.0,0.0
15:15:54,766792.0,0.0,0.0
15:15:54,767192.0,0.0,0.0
15:15:54,767173.0,0.0,0.0
15:15:54,766869.0,0.0,0.0
15:15:54,767665.0,0.0,0.0
15:15:54,767000.0,0.0,0.0
15:15:54,767281.0,0.0,0.0
15:15:54,767191.0,0.0,0.0
15:15:54,766812.0,0.0,0.0
15:15:54,767482.0,0.0,0.0
15:15:54,766849.0,0.0,0.0
15:15:54,767309.0,0.0,0.0
15:15:54,767252.0,0.0,0.0
15:15:54,766849.0,0.0,0.0
15:15:54,767508.0,0.0,0.0
15:15:54,766839.0,0.0,0.0
15:15:54,767258.0,0.0,0.0
15:15:54,767256.0,0.0,0.0
15:15:54,766859.0,0.0,0.0
15:15:54,767488.0,0.0,0.0
15:15:54,766878.0,0.0,0.0
15:15:54,767307.0,0.0,0.0
15:15:54,767223.0,0.0,0.0
15:15:54,766844.0,0.0,0.0
15:15:54,767448.0,0.0,0.0
15:15:54,766786.0,0.0,0.0
15:15:54,767293.0,0.0,0.0
15:15:54,767201.0,0.0,0.0
15:15:54,766833.0,0.0,0.0
15:15:54,767486.0,0.0,0.0
15:15:54,766819.0,0.0,0.0
15:15:54,767276.0,0.0,0.0
15:15:54,767216.0,0.0,0.0
15:15:54,766875.0,0.0,0.0
15:15:54,767577.0,0.0,0.0
15:15:54,766916.0,0.0,0.0
15:15:54,767347.0,0.0,0.0
15:15:54,767302.0,0.0,0.0
15:15:54,766973.0,0.0,0.0
15:15:54,767573.0,0.0,0.0
15:15:54,766930.0,0.0,0.0
15:15:54,767390.0,0.0,0.0
15:15:54,767306.0,0.0,0.0
15:15:54,766978.0,0.0,0.0
15:15:54,767591.0,0.0,0.0
15:15:54,766946.0,0.0,0.0
15:15:54,767394.0,0.0,0.0
15:15:54,767304.0,0.0,0.0
15:15:54,766988.0,0.0,0.0
15:15:54,767613.0,0.0,0.0
15:15:54,766947.0,0.0,0.0
15:15:54,767438.0,0.0,0.0
15:15:54,767362.0,0.0,0.0
15:15:54,767026.0,0.0,0.0
15:15:54,767620.0,0.0,0.0
15:15:54,766947.0,0.0,0.0
15:15:54,767433.0,0.0,0.0
15:15:54,767351.0,0.0,0.0
15:15:54,767014.0,0.0,0.0
15:15:54,767606.0,0.0,0.0
15:15:54,766933.0,0.0,0.0
15:15:54,767444.0,0.0,0.0
15:15:54,767348.0,0.0,0.0
15:15:54,767069.0,0.0,0.0
15:15:54,767699.0,0.0,0.0
15:15:54,767004.0,0.0,0.0
15:15:54,767478.0,0.0,0.0
15:15:54,767398.0,0.0,0.0
15:15:54,767063.0,0.0,0.0
15:15:54,767678.0,0.0,0.0
15:15:55,767006.0,0.0,0.0
15:15:55,767460.0,0.0,0.0
15:15:55,767366.0,0.0,0.0
15:15:55,767015.0,0.0,0.0
15:15:55,767646.0,0.0,0.0
15:15:55,766988.0,0.0,0.0
15:15:55,767464.0,0.0,0.0
15:15:55,767380.0,0.0,0.0
15:15:55,767069.0,0.0,0.0
15:15:55,767638.0,0.0,0.0
15:15:55,766993.0,0.0,0.0
15:15:55,767513.0,0.0,0.0
15:15:55,767401.0,0.0,0.0
15:15:55,767086.0,0.0,0.0
15:15:55,767705.0,0.0,0.0
15:15:55,767019.0,0.0,0.0
15:15:55,767514.0,0.0,0.0
15:15:55,767395.0,0.0,0.0
15:15:55,767116.0,0.0,0.0
15:15:55,767738.0,0.0,0.0
15:15:55,767054.0,0.0,0.0
15:15:55,767495.0,0.0,0.0
15:15:55,767415.0,0.0,0.0
15:15:55,767142.0,0.0,0.0
15:15:55,767754.0,0.0,0.0
15:15:55,767020.0,0.0,0.0
15:15:55,767507.0,0.0,0.0
15:15:55,767388.0,0.0,0.0
15:15:55,767136.0,0.0,0.0
15:15:55,767743.0,0.0,0.0
15:15:55,767049.0,0.0,0.0
15:15:55,767554.0,0.0,0.0
15:15:55,767420.0,0.0,0.0
15:15:55,767126.0,0.0,0.0
15:15:55,767738.0,0.0,0.0
15:15:55,767062.0,0.0,0.0
15:15:55,767534.0,0.0,0.0
15:15:55,767396.0,0.0,0.0
15:15:55,767133.0,0.0,0.0
15:15:55,767751.0,0.0,0.0
15:15:55,767063.0,0.0,0.0
15:15:55,767506.0,0.0,0.0
15:15:55,767334.0,0.0,0.0
15:15:55,767101.0,0.0,0.0
15:15:55,767816.0,0.0,0.0
15:15:55,767214.0,0.0,0.0
15:15:55,767660.0,0.0,0.0
15:15:55,767421.0,0.0,0.0
15:15:55,767109.0,0.0,0.0
15:15:55,767693.0,0.0,0.0
15:15:55,767009.0,0.0,0.0
15:15:55,767551.0,0.0,0.0
15:15:55,767410.0,0.0,0.0
15:15:55,767161.0,0.0,0.0
15:15:55,767763.0,0.0,0.0
15:15:55,767078.0,0.0,0.0
15:15:55,767561.0,0.0,0.0
15:15:55,767401.0,0.0,0.0
15:15:55,767113.0,0.0,0.0
15:15:55,767688.0,0.0,0.0
15:15:55,767021.0,0.0,0.0
15:15:55,767537.0,0.0,0.0
15:15:55,767358.0,0.0,0.0
15:15:55,767097.0,0.0,0.0
15:15:55,767659.0,0.0,0.0
15:15:55,766975.0,0.0,0.0
15:15:55,767487.0,0.0,0.0
15:15:55,767294.0,0.0,0.0
15:15:55,767066.0,0.0,0.0
15:15:55,767616.0,0.0,0.0
