TimeStramp,ECG,SpO2,Respiration
15:17:20,737639.0,0.0,0.0
15:17:20,737682.0,0.0,0.0
15:17:20,737863.0,0.0,0.0
15:17:20,737507.0,0.0,0.0
15:17:20,737850.0,0.0,0.0
15:17:20,737552.0,0.0,0.0
15:17:20,737606.0,0.0,0.0
15:17:20,737817.0,0.0,0.0
15:17:20,737467.0,0.0,0.0
15:17:20,737834.0,0.0,0.0
15:17:20,737573.0,0.0,0.0
15:17:20,737652.0,0.0,0.0
15:17:20,737812.0,0.0,0.0
15:17:20,737494.0,0.0,0.0
15:17:20,737855.0,0.0,0.0
15:17:20,737573.0,0.0,0.0
15:17:20,737621.0,0.0,0.0
15:17:20,737805.0,0.0,0.0
15:17:20,737482.0,0.0,0.0
15:17:20,737829.0,0.0,0.0
15:17:20,737554.0,0.0,0.0
15:17:20,737641.0,0.0,0.0
15:17:20,737818.0,0.0,0.0
15:17:20,737496.0,0.0,0.0
15:17:20,737864.0,0.0,0.0
15:17:20,737599.0,0.0,0.0
15:17:20,737669.0,0.0,0.0
15:17:20,737805.0,0.0,0.0
15:17:20,737486.0,0.0,0.0
15:17:20,737844.0,0.0,0.0
15:17:20,737524.0,0.0,0.0
15:17:20,737603.0,0.0,0.0
15:17:20,737729.0,0.0,0.0
15:17:20,737409.0,0.0,0.0
15:17:20,737808.0,0.0,0.0
15:17:20,737555.0,0.0,0.0
15:17:20,737654.0,0.0,0.0
15:17:20,737804.0,0.0,0.0
15:17:20,737466.0,0.0,0.0
15:17:20,737856.0,0.0,0.0
15:17:20,737571.0,0.0,0.0
15:17:20,737669.0,0.0,0.0
15:17:20,737834.0,0.0,0.0
15:17:20,737518.0,0.0,0.0
15:17:20,737911.0,0.0,0.0
15:17:20,737631.0,0.0,0.0
15:17:20,737726.0,0.0,0.0
15:17:20,737884.0,0.0,0.0
15:17:20,737531.0,0.0,0.0
15:17:20,737871.0,0.0,0.0
15:17:20,737587.0,0.0,0.0
15:17:20,737699.0,0.0,0.0
15:17:20,737829.0,0.0,0.0
15:17:20,737483.0,0.0,0.0
15:17:20,737846.0,0.0,0.0
15:17:20,737584.0,0.0,0.0
15:17:20,737692.0,0.0,0.0
15:17:20,737852.0,0.0,0.0
15:17:20,737502.0,0.0,0.0
15:17:20,737883.0,0.0,0.0
15:17:20,737593.0,0.0,0.0
15:17:20,737688.0,0.0,0.0
15:17:20,737776.0,0.0,0.0
15:17:20,737423.0,0.0,0.0
15:17:20,737803.0,0.0,0.0
15:17:20,737546.0,0.0,0.0
15:17:20,737571.0,0.0,0.0
15:17:20,737708.0,0.0,0.0
15:17:20,737542.0,0.0,0.0
15:17:20,738086.0,0.0,0.0
15:17:20,737744.0,0.0,0.0
15:17:20,737749.0,0.0,0.0
15:17:20,737836.0,0.0,0.0
15:17:20,737518.0,0.0,0.0
15:17:20,737937.0,0.0,0.0
15:17:20,737669.0,0.0,0.0
15:17:20,737756.0,0.0,0.0
15:17:20,737934.0,0.0,0.0
15:17:20,737625.0,0.0,0.0
15:17:20,737977.0,0.0,0.0
15:17:20,737667.0,0.0,0.0
15:17:20,737754.0,0.0,0.0
15:17:20,737919.0,0.0,0.0
15:17:20,737594.0,0.0,0.0
15:17:20,737989.0,0.0,0.0
15:17:20,737675.0,0.0,0.0
15:17:20,737778.0,0.0,0.0
15:17:20,737893.0,0.0,0.0
15:17:20,737608.0,0.0,0.0
15:17:20,737996.0,0.0,0.0
15:17:20,737699.0,0.0,0.0
15:17:20,737824.0,0.0,0.0
15:17:20,737969.0,0.0,0.0
15:17:20,737654.0,0.0,0.0
15:17:20,738130.0,0.0,0.0
15:17:20,737985.0,0.0,0.0
15:17:20,738338.0,0.0,0.0
15:17:20,738461.0,0.0,0.0
15:17:20,737869.0,0.0,0.0
15:17:20,738118.0,0.0,0.0
15:17:20,737793.0,0.0,0.0
15:17:20,737857.0,0.0,0.0
15:17:20,738046.0,0.0,0.0
15:17:20,737621.0,0.0,0.0
15:17:20,737759.0,0.0,0.0
15:17:20,737296.0,0.0,0.0
15:17:20,737288.0,0.0,0.0
15:17:20,737344.0,0.0,0.0
15:17:20,736976.0,0.0,0.0
15:17:20,737297.0,0.0,0.0
15:17:20,737026.0,0.0,0.0
15:17:20,737148.0,0.0,0.0
15:17:20,737271.0,0.0,0.0
15:17:20,736961.0,0.0,0.0
15:17:20,737323.0,0.0,0.0
15:17:20,737069.0,0.0,0.0
15:17:20,737193.0,0.0,0.0
15:17:20,737368.0,0.0,0.0
15:17:20,737083.0,0.0,0.0
15:17:20,737496.0,0.0,0.0
15:17:20,737274.0,0.0,0.0
15:17:20,737390.0,0.0,0.0
15:17:20,737558.0,0.0,0.0
15:17:20,737219.0,0.0,0.0
15:17:20,737613.0,0.0,0.0
15:17:21,737304.0,0.0,0.0
15:17:21,737405.0,0.0,0.0
15:17:21,737573.0,0.0,0.0
15:17:21,737253.0,0.0,0.0
15:17:21,737648.0,0.0,0.0
15:17:21,737373.0,0.0,0.0
15:17:21,737464.0,0.0,0.0
15:17:21,737579.0,0.0,0.0
15:17:21,737246.0,0.0,0.0
15:17:21,737618.0,0.0,0.0
15:17:21,737329.0,0.0,0.0
15:17:21,737408.0,0.0,0.0
15:17:21,737592.0,0.0,0.0
15:17:21,737268.0,0.0,0.0
15:17:21,737684.0,0.0,0.0
15:17:21,737361.0,0.0,0.0
15:17:21,737474.0,0.0,0.0
15:17:21,737643.0,0.0,0.0
15:17:21,737325.0,0.0,0.0
15:17:21,737739.0,0.0,0.0
15:17:21,737426.0,0.0,0.0
15:17:21,737495.0,0.0,0.0
15:17:21,737599.0,0.0,0.0
15:17:21,737228.0,0.0,0.0
15:17:21,737594.0,0.0,0.0
15:17:21,737270.0,0.0,0.0
15:17:21,737394.0,0.0,0.0
15:17:21,737531.0,0.0,0.0
15:17:21,737185.0,0.0,0.0
15:17:21,737621.0,0.0,0.0
15:17:21,737336.0,0.0,0.0
15:17:21,737402.0,0.0,0.0
15:17:21,737529.0,0.0,0.0
15:17:21,737192.0,0.0,0.0
15:17:21,737594.0,0.0,0.0
15:17:21,737225.0,0.0,0.0
15:17:21,737351.0,0.0,0.0
15:17:21,737483.0,0.0,0.0
15:17:21,737152.0,0.0,0.0
15:17:21,737542.0,0.0,0.0
15:17:21,737208.0,0.0,0.0
15:17:21,737306.0,0.0,0.0
15:17:21,737368.0,0.0,0.0
15:17:21,737076.0,0.0,0.0
15:17:21,737656.0,0.0,0.0
15:17:21,737479.0,0.0,0.0
15:17:21,737501.0,0.0,0.0
15:17:21,737501.0,0.0,0.0
15:17:21,737138.0,0.0,0.0
15:17:21,737528.0,0.0,0.0
15:17:21,737229.0,0.0,0.0
15:17:21,737344.0,0.0,0.0
15:17:21,737507.0,0.0,0.0
15:17:21,737214.0,0.0,0.0
15:17:21,737598.0,0.0,0.0
15:17:21,737284.0,0.0,0.0
15:17:21,737404.0,0.0,0.0
15:17:21,737494.0,0.0,0.0
15:17:21,737153.0,0.0,0.0
15:17:21,737534.0,0.0,0.0
15:17:21,737209.0,0.0,0.0
15:17:21,737306.0,0.0,0.0
15:17:21,737427.0,0.0,0.0
15:17:21,737123.0,0.0,0.0
15:17:21,737511.0,0.0,0.0
15:17:21,737191.0,0.0,0.0
15:17:21,737316.0,0.0,0.0
15:17:21,737419.0,0.0,0.0
15:17:21,737058.0,0.0,0.0
15:17:21,737471.0,0.0,0.0
15:17:21,737158.0,0.0,0.0
15:17:21,737275.0,0.0,0.0
15:17:21,737404.0,0.0,0.0
15:17:21,737049.0,0.0,0.0
15:17:21,737414.0,0.0,0.0
15:17:21,737083.0,0.0,0.0
15:17:21,737193.0,0.0,0.0
15:17:21,737316.0,0.0,0.0
15:17:21,736998.0,0.0,0.0
15:17:21,737378.0,0.0,0.0
15:17:21,737012.0,0.0,0.0
15:17:21,737102.0,0.0,0.0
15:17:21,737232.0,0.0,0.0
15:17:21,736874.0,0.0,0.0
15:17:21,737263.0,0.0,0.0
15:17:21,736978.0,0.0,0.0
15:17:21,737091.0,0.0,0.0
15:17:21,737227.0,0.0,0.0
15:17:21,736909.0,0.0,0.0
15:17:21,737295.0,0.0,0.0
15:17:21,736935.0,0.0,0.0
15:17:21,737074.0,0.0,0.0
15:17:21,737203.0,0.0,0.0
15:17:21,736859.0,0.0,0.0
15:17:21,737266.0,0.0,0.0
15:17:21,736966.0,0.0,0.0
15:17:21,737074.0,0.0,0.0
15:17:21,737168.0,0.0,0.0
15:17:21,736867.0,0.0,0.0
15:17:21,737262.0,0.0,0.0
15:17:21,736936.0,0.0,0.0
15:17:21,737044.0,0.0,0.0
15:17:21,737165.0,0.0,0.0
15:17:21,736864.0,0.0,0.0
15:17:21,737261.0,0.0,0.0
15:17:21,736907.0,0.0,0.0
15:17:21,737041.0,0.0,0.0
15:17:21,737162.0,0.0,0.0
15:17:21,736859.0,0.0,0.0
15:17:21,737276.0,0.0,0.0
15:17:21,736947.0,0.0,0.0
15:17:21,737074.0,0.0,0.0
15:17:21,737203.0,0.0,0.0
15:17:21,736892.0,0.0,0.0
15:17:21,737304.0,0.0,0.0
15:17:21,736963.0,0.0,0.0
15:17:21,737094.0,0.0,0.0
15:17:21,737201.0,0.0,0.0
15:17:21,736906.0,0.0,0.0
15:17:21,737301.0,0.0,0.0
15:17:21,736908.0,0.0,0.0
15:17:21,737036.0,0.0,0.0
15:17:21,737141.0,0.0,0.0
15:17:21,736845.0,0.0,0.0
15:17:21,737254.0,0.0,0.0
15:17:22,736937.0,0.0,0.0
15:17:22,737029.0,0.0,0.0
15:17:22,737176.0,0.0,0.0
15:17:22,736866.0,0.0,0.0
15:17:22,737243.0,0.0,0.0
15:17:22,736901.0,0.0,0.0
15:17:22,737028.0,0.0,0.0
15:17:22,737118.0,0.0,0.0
15:17:22,736850.0,0.0,0.0
15:17:22,737260.0,0.0,0.0
15:17:22,736879.0,0.0,0.0
15:17:22,736997.0,0.0,0.0
15:17:22,737134.0,0.0,0.0
15:17:22,736851.0,0.0,0.0
15:17:22,737258.0,0.0,0.0
15:17:22,736926.0,0.0,0.0
15:17:22,737023.0,0.0,0.0
15:17:22,737058.0,0.0,0.0
15:17:22,736671.0,0.0,0.0
15:17:22,737136.0,0.0,0.0
15:17:22,736964.0,0.0,0.0
15:17:22,737249.0,0.0,0.0
15:17:22,737243.0,0.0,0.0
15:17:22,736766.0,0.0,0.0
15:17:22,737111.0,0.0,0.0
15:17:22,736789.0,0.0,0.0
15:17:22,736958.0,0.0,0.0
15:17:22,737054.0,0.0,0.0
15:17:22,736753.0,0.0,0.0
15:17:22,737179.0,0.0,0.0
15:17:22,736836.0,0.0,0.0
15:17:22,736985.0,0.0,0.0
15:17:22,737078.0,0.0,0.0
15:17:22,736786.0,0.0,0.0
15:17:22,737209.0,0.0,0.0
15:17:22,736874.0,0.0,0.0
15:17:22,737003.0,0.0,0.0
15:17:22,737079.0,0.0,0.0
15:17:22,736778.0,0.0,0.0
15:17:22,737169.0,0.0,0.0
15:17:22,736798.0,0.0,0.0
15:17:22,736956.0,0.0,0.0
15:17:22,737066.0,0.0,0.0
15:17:22,736732.0,0.0,0.0
15:17:22,737128.0,0.0,0.0
15:17:22,736791.0,0.0,0.0
15:17:22,736965.0,0.0,0.0
15:17:22,737039.0,0.0,0.0
15:17:22,736718.0,0.0,0.0
15:17:22,737108.0,0.0,0.0
15:17:22,736749.0,0.0,0.0
15:17:22,736919.0,0.0,0.0
15:17:22,737023.0,0.0,0.0
15:17:22,736695.0,0.0,0.0
15:17:22,737079.0,0.0,0.0
15:17:22,736781.0,0.0,0.0
15:17:22,736946.0,0.0,0.0
15:17:22,737016.0,0.0,0.0
15:17:22,736702.0,0.0,0.0
15:17:22,737092.0,0.0,0.0
15:17:22,736753.0,0.0,0.0
15:17:22,736934.0,0.0,0.0
15:17:22,737024.0,0.0,0.0
15:17:22,736718.0,0.0,0.0
15:17:22,737104.0,0.0,0.0
15:17:22,736806.0,0.0,0.0
15:17:22,736963.0,0.0,0.0
15:17:22,737048.0,0.0,0.0
15:17:22,736786.0,0.0,0.0
15:17:22,737143.0,0.0,0.0
15:17:22,736783.0,0.0,0.0
15:17:22,736958.0,0.0,0.0
15:17:22,737033.0,0.0,0.0
15:17:22,736748.0,0.0,0.0
15:17:22,737126.0,0.0,0.0
15:17:22,736759.0,0.0,0.0
15:17:22,736914.0,0.0,0.0
15:17:22,736968.0,0.0,0.0
15:17:22,736683.0,0.0,0.0
15:17:22,737059.0,0.0,0.0
15:17:22,736690.0,0.0,0.0
15:17:22,736874.0,0.0,0.0
15:17:22,736974.0,0.0,0.0
15:17:22,736701.0,0.0,0.0
15:17:22,737076.0,0.0,0.0
15:17:22,736756.0,0.0,0.0
15:17:22,736898.0,0.0,0.0
15:17:22,736956.0,0.0,0.0
15:17:22,736684.0,0.0,0.0
15:17:22,737097.0,0.0,0.0
15:17:22,736738.0,0.0,0.0
15:17:22,736922.0,0.0,0.0
15:17:22,736938.0,0.0,0.0
15:17:22,736649.0,0.0,0.0
15:17:22,737084.0,0.0,0.0
15:17:22,736769.0,0.0,0.0
15:17:22,736919.0,0.0,0.0
15:17:22,736961.0,0.0,0.0
15:17:22,736679.0,0.0,0.0
15:17:22,737084.0,0.0,0.0
15:17:22,736726.0,0.0,0.0
15:17:22,736931.0,0.0,0.0
15:17:22,737021.0,0.0,0.0
15:17:22,736750.0,0.0,0.0
15:17:22,737134.0,0.0,0.0
15:17:22,736768.0,0.0,0.0
15:17:22,736956.0,0.0,0.0
15:17:22,737020.0,0.0,0.0
15:17:22,736749.0,0.0,0.0
15:17:22,737117.0,0.0,0.0
15:17:22,736704.0,0.0,0.0
15:17:22,736833.0,0.0,0.0
15:17:22,736864.0,0.0,0.0
15:17:22,736543.0,0.0,0.0
15:17:22,736914.0,0.0,0.0
15:17:22,736509.0,0.0,0.0
15:17:22,736643.0,0.0,0.0
15:17:22,736819.0,0.0,0.0
15:17:22,736696.0,0.0,0.0
15:17:22,737030.0,0.0,0.0
15:17:22,736568.0,0.0,0.0
15:17:22,736676.0,0.0,0.0
15:17:22,736675.0,0.0,0.0
15:17:22,736438.0,0.0,0.0
15:17:22,736854.0,0.0,0.0
15:17:23,736528.0,0.0,0.0
15:17:23,736680.0,0.0,0.0
15:17:23,736749.0,0.0,0.0
15:17:23,736477.0,0.0,0.0
15:17:23,736856.0,0.0,0.0
15:17:23,736509.0,0.0,0.0
15:17:23,736678.0,0.0,0.0
15:17:23,736677.0,0.0,0.0
15:17:23,736403.0,0.0,0.0
15:17:23,736785.0,0.0,0.0
15:17:23,736456.0,0.0,0.0
15:17:23,736636.0,0.0,0.0
15:17:23,736681.0,0.0,0.0
15:17:23,736416.0,0.0,0.0
15:17:23,736818.0,0.0,0.0
15:17:23,736508.0,0.0,0.0
15:17:23,736708.0,0.0,0.0
15:17:23,736803.0,0.0,0.0
15:17:23,736534.0,0.0,0.0
15:17:23,736956.0,0.0,0.0
15:17:23,736630.0,0.0,0.0
15:17:23,736809.0,0.0,0.0
15:17:23,736871.0,0.0,0.0
15:17:23,736608.0,0.0,0.0
15:17:23,736978.0,0.0,0.0
15:17:23,736668.0,0.0,0.0
15:17:23,736861.0,0.0,0.0
15:17:23,736908.0,0.0,0.0
15:17:23,736606.0,0.0,0.0
15:17:23,736989.0,0.0,0.0
15:17:23,736618.0,0.0,0.0
15:17:23,736789.0,0.0,0.0
15:17:23,736864.0,0.0,0.0
15:17:23,736582.0,0.0,0.0
15:17:23,736948.0,0.0,0.0
15:17:23,736620.0,0.0,0.0
15:17:23,736825.0,0.0,0.0
15:17:23,736831.0,0.0,0.0
15:17:23,736545.0,0.0,0.0
15:17:23,736942.0,0.0,0.0
15:17:23,736606.0,0.0,0.0
15:17:23,736817.0,0.0,0.0
15:17:23,736869.0,0.0,0.0
15:17:23,736593.0,0.0,0.0
15:17:23,736972.0,0.0,0.0
15:17:23,736628.0,0.0,0.0
15:17:23,736829.0,0.0,0.0
15:17:23,736874.0,0.0,0.0
15:17:23,736592.0,0.0,0.0
15:17:23,736961.0,0.0,0.0
15:17:23,736627.0,0.0,0.0
15:17:23,736796.0,0.0,0.0
15:17:23,736849.0,0.0,0.0
15:17:23,736619.0,0.0,0.0
15:17:23,736963.0,0.0,0.0
15:17:23,736625.0,0.0,0.0
15:17:23,736814.0,0.0,0.0
15:17:23,736845.0,0.0,0.0
15:17:23,736639.0,0.0,0.0
15:17:23,737016.0,0.0,0.0
15:17:23,736650.0,0.0,0.0
15:17:23,736874.0,0.0,0.0
15:17:23,736929.0,0.0,0.0
15:17:23,736675.0,0.0,0.0
15:17:23,737017.0,0.0,0.0
15:17:23,736654.0,0.0,0.0
15:17:23,736836.0,0.0,0.0
15:17:23,736922.0,0.0,0.0
15:17:23,736709.0,0.0,0.0
15:17:23,737106.0,0.0,0.0
15:17:23,736771.0,0.0,0.0
15:17:23,736919.0,0.0,0.0
15:17:23,736930.0,0.0,0.0
15:17:23,736701.0,0.0,0.0
15:17:23,737065.0,0.0,0.0
15:17:23,736728.0,0.0,0.0
15:17:23,736902.0,0.0,0.0
15:17:23,736972.0,0.0,0.0
15:17:23,736713.0,0.0,0.0
15:17:23,737049.0,0.0,0.0
15:17:23,736744.0,0.0,0.0
15:17:23,736930.0,0.0,0.0
15:17:23,736981.0,0.0,0.0
15:17:23,736719.0,0.0,0.0
15:17:23,737041.0,0.0,0.0
15:17:23,736666.0,0.0,0.0
15:17:23,736786.0,0.0,0.0
15:17:23,736811.0,0.0,0.0
15:17:23,736726.0,0.0,0.0
15:17:23,737243.0,0.0,0.0
15:17:23,736823.0,0.0,0.0
15:17:23,736914.0,0.0,0.0
15:17:23,736877.0,0.0,0.0
15:17:23,736631.0,0.0,0.0
15:17:23,737064.0,0.0,0.0
15:17:23,736753.0,0.0,0.0
15:17:23,736988.0,0.0,0.0
15:17:23,737033.0,0.0,0.0
15:17:23,736798.0,0.0,0.0
15:17:23,737161.0,0.0,0.0
15:17:23,736823.0,0.0,0.0
15:17:23,737023.0,0.0,0.0
15:17:23,737038.0,0.0,0.0
15:17:23,736776.0,0.0,0.0
15:17:23,737099.0,0.0,0.0
15:17:23,736742.0,0.0,0.0
15:17:23,736959.0,0.0,0.0
15:17:23,736996.0,0.0,0.0
15:17:23,736757.0,0.0,0.0
15:17:23,737096.0,0.0,0.0
15:17:23,736775.0,0.0,0.0
15:17:23,736990.0,0.0,0.0
15:17:23,737024.0,0.0,0.0
15:17:23,736787.0,0.0,0.0
15:17:23,737145.0,0.0,0.0
15:17:23,736732.0,0.0,0.0
15:17:23,736889.0,0.0,0.0
15:17:23,736870.0,0.0,0.0
15:17:23,736508.0,0.0,0.0
15:17:23,736536.0,0.0,0.0
15:17:23,736020.0,0.0,0.0
15:17:23,736259.0,0.0,0.0
15:17:23,736369.0,0.0,0.0
15:17:23,736161.0,0.0,0.0
15:17:23,736494.0,0.0,0.0
15:17:24,736128.0,0.0,0.0
15:17:24,736321.0,0.0,0.0
15:17:24,736376.0,0.0,0.0
15:17:24,736242.0,0.0,0.0
15:17:24,736620.0,0.0,0.0
15:17:24,736151.0,0.0,0.0
15:17:24,736213.0,0.0,0.0
15:17:24,735809.0,0.0,0.0
15:17:24,735284.0,0.0,0.0
15:17:24,735933.0,0.0,0.0
15:17:24,736478.0,0.0,0.0
15:17:24,737609.0,0.0,0.0
15:17:24,738184.0,0.0,0.0
15:17:24,738188.0,0.0,0.0
15:17:24,738561.0,0.0,0.0
15:17:24,738071.0,0.0,0.0
15:17:24,738156.0,0.0,0.0
15:17:24,737963.0,0.0,0.0
15:17:24,737499.0,0.0,0.0
15:17:24,737671.0,0.0,0.0
15:17:24,737126.0,0.0,0.0
15:17:24,737248.0,0.0,0.0
15:17:24,737237.0,0.0,0.0
15:17:24,737043.0,0.0,0.0
15:17:24,737516.0,0.0,0.0
15:17:24,737356.0,0.0,0.0
15:17:24,737668.0,0.0,0.0
15:17:24,737393.0,0.0,0.0
15:17:24,737185.0,0.0,0.0
15:17:24,737583.0,0.0,0.0
15:17:24,736564.0,0.0,0.0
15:17:24,736090.0,0.0,0.0
15:17:24,735608.0,0.0,0.0
15:17:24,734844.0,0.0,0.0
15:17:24,735014.0,0.0,0.0
15:17:24,734458.0,0.0,0.0
15:17:24,734477.0,0.0,0.0
15:17:24,734484.0,0.0,0.0
15:17:24,734244.0,0.0,0.0
15:17:24,735773.0,0.0,0.0
15:17:24,735299.0,0.0,0.0
15:17:24,734858.0,0.0,0.0
15:17:24,734681.0,0.0,0.0
15:17:24,734190.0,0.0,0.0
15:17:24,734156.0,0.0,0.0
15:17:24,733423.0,0.0,0.0
15:17:24,733206.0,0.0,0.0
15:17:24,732681.0,0.0,0.0
15:17:24,731799.0,0.0,0.0
15:17:24,731634.0,0.0,0.0
15:17:24,730959.0,0.0,0.0
15:17:24,730896.0,0.0,0.0
15:17:24,730684.0,0.0,0.0
15:17:24,730340.0,0.0,0.0
15:17:24,730646.0,0.0,0.0
15:17:24,730470.0,0.0,0.0
15:17:24,731050.0,0.0,0.0
15:17:24,731574.0,0.0,0.0
15:17:24,731702.0,0.0,0.0
15:17:24,732330.0,0.0,0.0
15:17:24,732270.0,0.0,0.0
15:17:24,732913.0,0.0,0.0
15:17:24,733442.0,0.0,0.0
15:17:24,733811.0,0.0,0.0
15:17:24,734735.0,0.0,0.0
15:17:24,734850.0,0.0,0.0
15:17:24,735589.0,0.0,0.0
15:17:24,736016.0,0.0,0.0
15:17:24,736137.0,0.0,0.0
15:17:24,736927.0,0.0,0.0
15:17:24,736822.0,0.0,0.0
15:17:24,737179.0,0.0,0.0
15:17:24,737253.0,0.0,0.0
15:17:24,737068.0,0.0,0.0
15:17:24,737442.0,0.0,0.0
15:17:24,737067.0,0.0,0.0
15:17:24,737231.0,0.0,0.0
15:17:24,737165.0,0.0,0.0
15:17:24,736940.0,0.0,0.0
15:17:24,737323.0,0.0,0.0
15:17:24,736918.0,0.0,0.0
15:17:24,737226.0,0.0,0.0
15:17:24,737221.0,0.0,0.0
15:17:24,736851.0,0.0,0.0
15:17:24,737084.0,0.0,0.0
15:17:24,736499.0,0.0,0.0
15:17:24,736569.0,0.0,0.0
15:17:24,736471.0,0.0,0.0
15:17:24,736269.0,0.0,0.0
15:17:24,736669.0,0.0,0.0
15:17:24,736379.0,0.0,0.0
15:17:24,736823.0,0.0,0.0
15:17:24,736992.0,0.0,0.0
15:17:24,736991.0,0.0,0.0
15:17:24,737691.0,0.0,0.0
15:17:24,737482.0,0.0,0.0
15:17:24,737814.0,0.0,0.0
15:17:24,737910.0,0.0,0.0
15:17:24,737711.0,0.0,0.0
15:17:24,738086.0,0.0,0.0
15:17:24,737778.0,0.0,0.0
15:17:24,738109.0,0.0,0.0
15:17:24,738221.0,0.0,0.0
15:17:24,738099.0,0.0,0.0
15:17:24,738549.0,0.0,0.0
15:17:24,738086.0,0.0,0.0
15:17:24,738272.0,0.0,0.0
15:17:24,738279.0,0.0,0.0
15:17:24,738066.0,0.0,0.0
15:17:24,738327.0,0.0,0.0
15:17:24,737828.0,0.0,0.0
15:17:24,737916.0,0.0,0.0
15:17:24,737780.0,0.0,0.0
15:17:24,737477.0,0.0,0.0
15:17:24,737780.0,0.0,0.0
15:17:24,737357.0,0.0,0.0
15:17:24,737606.0,0.0,0.0
15:17:24,737540.0,0.0,0.0
15:17:24,737226.0,0.0,0.0
15:17:24,737513.0,0.0,0.0
15:17:24,737154.0,0.0,0.0
15:17:24,737344.0,0.0,0.0
15:17:24,737246.0,0.0,0.0
15:17:24,736979.0,0.0,0.0
15:17:24,737318.0,0.0,0.0
15:17:25,736931.0,0.0,0.0
15:17:25,737189.0,0.0,0.0
15:17:25,737163.0,0.0,0.0
15:17:25,737048.0,0.0,0.0
15:17:25,737450.0,0.0,0.0
15:17:25,737179.0,0.0,0.0
15:17:25,737533.0,0.0,0.0
15:17:25,737608.0,0.0,0.0
15:17:25,737487.0,0.0,0.0
15:17:25,737899.0,0.0,0.0
15:17:25,737594.0,0.0,0.0
15:17:25,737937.0,0.0,0.0
15:17:25,737999.0,0.0,0.0
15:17:25,737847.0,0.0,0.0
15:17:25,738284.0,0.0,0.0
15:17:25,737931.0,0.0,0.0
15:17:25,738166.0,0.0,0.0
15:17:25,738103.0,0.0,0.0
15:17:25,737786.0,0.0,0.0
15:17:25,738048.0,0.0,0.0
15:17:25,737532.0,0.0,0.0
15:17:25,737581.0,0.0,0.0
15:17:25,737429.0,0.0,0.0
15:17:25,737215.0,0.0,0.0
15:17:25,737573.0,0.0,0.0
15:17:25,736946.0,0.0,0.0
15:17:25,736960.0,0.0,0.0
15:17:25,736763.0,0.0,0.0
15:17:25,736483.0,0.0,0.0
15:17:25,736776.0,0.0,0.0
15:17:25,736144.0,0.0,0.0
15:17:25,736204.0,0.0,0.0
15:17:25,736003.0,0.0,0.0
15:17:25,735688.0,0.0,0.0
15:17:25,735988.0,0.0,0.0
15:17:25,735563.0,0.0,0.0
15:17:25,735817.0,0.0,0.0
15:17:25,735773.0,0.0,0.0
15:17:25,735609.0,0.0,0.0
15:17:25,736106.0,0.0,0.0
15:17:25,735883.0,0.0,0.0
15:17:25,736303.0,0.0,0.0
15:17:25,736379.0,0.0,0.0
15:17:25,736274.0,0.0,0.0
15:17:25,736785.0,0.0,0.0
15:17:25,736510.0,0.0,0.0
15:17:25,736884.0,0.0,0.0
15:17:25,736949.0,0.0,0.0
15:17:25,736728.0,0.0,0.0
15:17:25,737089.0,0.0,0.0
15:17:25,736652.0,0.0,0.0
15:17:25,736829.0,0.0,0.0
15:17:25,736683.0,0.0,0.0
15:17:25,736358.0,0.0,0.0
15:17:25,736631.0,0.0,0.0
15:17:25,736113.0,0.0,0.0
15:17:25,736312.0,0.0,0.0
15:17:25,736270.0,0.0,0.0
15:17:25,735999.0,0.0,0.0
15:17:25,736444.0,0.0,0.0
15:17:25,736130.0,0.0,0.0
15:17:25,736337.0,0.0,0.0
15:17:25,736228.0,0.0,0.0
15:17:25,736106.0,0.0,0.0
15:17:25,736550.0,0.0,0.0
15:17:25,736163.0,0.0,0.0
15:17:25,736516.0,0.0,0.0
15:17:25,736522.0,0.0,0.0
15:17:25,736353.0,0.0,0.0
15:17:25,736763.0,0.0,0.0
15:17:25,736398.0,0.0,0.0
15:17:25,736712.0,0.0,0.0
15:17:25,736704.0,0.0,0.0
15:17:25,736494.0,0.0,0.0
15:17:25,736883.0,0.0,0.0
15:17:25,736516.0,0.0,0.0
15:17:25,736759.0,0.0,0.0
15:17:25,736684.0,0.0,0.0
15:17:25,736441.0,0.0,0.0
15:17:25,736791.0,0.0,0.0
15:17:25,736359.0,0.0,0.0
15:17:25,736606.0,0.0,0.0
15:17:25,736511.0,0.0,0.0
15:17:25,736283.0,0.0,0.0
15:17:25,736633.0,0.0,0.0
15:17:25,736145.0,0.0,0.0
15:17:25,736449.0,0.0,0.0
15:17:25,736375.0,0.0,0.0
15:17:25,736175.0,0.0,0.0
15:17:25,736616.0,0.0,0.0
15:17:25,736197.0,0.0,0.0
15:17:25,736468.0,0.0,0.0
15:17:25,736399.0,0.0,0.0
15:17:25,736171.0,0.0,0.0
15:17:25,736593.0,0.0,0.0
15:17:25,736181.0,0.0,0.0
15:17:25,736464.0,0.0,0.0
15:17:25,736449.0,0.0,0.0
15:17:25,736308.0,0.0,0.0
15:17:25,736704.0,0.0,0.0
15:17:25,736287.0,0.0,0.0
15:17:25,736576.0,0.0,0.0
15:17:25,736538.0,0.0,0.0
15:17:25,736326.0,0.0,0.0
15:17:25,736709.0,0.0,0.0
15:17:25,736277.0,0.0,0.0
15:17:25,736624.0,0.0,0.0
15:17:25,736663.0,0.0,0.0
15:17:25,736493.0,0.0,0.0
15:17:25,736884.0,0.0,0.0
15:17:25,736431.0,0.0,0.0
15:17:25,736708.0,0.0,0.0
15:17:25,736565.0,0.0,0.0
15:17:25,736287.0,0.0,0.0
15:17:25,736782.0,0.0,0.0
15:17:25,736509.0,0.0,0.0
15:17:25,736884.0,0.0,0.0
15:17:25,736719.0,0.0,0.0
15:17:25,736381.0,0.0,0.0
15:17:25,736779.0,0.0,0.0
15:17:25,736409.0,0.0,0.0
15:17:25,736755.0,0.0,0.0
15:17:25,736739.0,0.0,0.0
15:17:25,736591.0,0.0,0.0
15:17:25,737009.0,0.0,0.0
15:17:26,736575.0,0.0,0.0
15:17:26,736868.0,0.0,0.0
15:17:26,736722.0,0.0,0.0
15:17:26,736442.0,0.0,0.0
15:17:26,736809.0,0.0,0.0
15:17:26,736434.0,0.0,0.0
15:17:26,736765.0,0.0,0.0
15:17:26,736683.0,0.0,0.0
15:17:26,736484.0,0.0,0.0
15:17:26,736886.0,0.0,0.0
15:17:26,736376.0,0.0,0.0
15:17:26,736603.0,0.0,0.0
15:17:26,736498.0,0.0,0.0
15:17:26,736237.0,0.0,0.0
15:17:26,736575.0,0.0,0.0
15:17:26,736126.0,0.0,0.0
15:17:26,736438.0,0.0,0.0
15:17:26,736421.0,0.0,0.0
15:17:26,736149.0,0.0,0.0
15:17:26,736472.0,0.0,0.0
15:17:26,736021.0,0.0,0.0
15:17:26,736354.0,0.0,0.0
15:17:26,736291.0,0.0,0.0
15:17:26,736098.0,0.0,0.0
15:17:26,736499.0,0.0,0.0
15:17:26,736061.0,0.0,0.0
15:17:26,736347.0,0.0,0.0
15:17:26,736248.0,0.0,0.0
15:17:26,735951.0,0.0,0.0
15:17:26,736231.0,0.0,0.0
15:17:26,735618.0,0.0,0.0
15:17:26,735801.0,0.0,0.0
15:17:26,735696.0,0.0,0.0
15:17:26,735588.0,0.0,0.0
15:17:26,736318.0,0.0,0.0
15:17:26,736269.0,0.0,0.0
15:17:26,736963.0,0.0,0.0
15:17:26,737068.0,0.0,0.0
15:17:26,737000.0,0.0,0.0
15:17:26,737447.0,0.0,0.0
15:17:26,737017.0,0.0,0.0
15:17:26,737209.0,0.0,0.0
15:17:26,736941.0,0.0,0.0
15:17:26,736723.0,0.0,0.0
15:17:26,737129.0,0.0,0.0
15:17:26,736746.0,0.0,0.0
15:17:26,737182.0,0.0,0.0
15:17:26,737174.0,0.0,0.0
15:17:26,737038.0,0.0,0.0
15:17:26,737428.0,0.0,0.0
15:17:26,737030.0,0.0,0.0
15:17:26,737584.0,0.0,0.0
15:17:26,737908.0,0.0,0.0
15:17:26,738653.0,0.0,0.0
15:17:26,738578.0,0.0,0.0
15:17:26,735404.0,0.0,0.0
15:17:26,734820.0,0.0,0.0
15:17:26,734929.0,0.0,0.0
15:17:26,734893.0,0.0,0.0
15:17:26,735526.0,0.0,0.0
15:17:26,735591.0,0.0,0.0
15:17:26,736336.0,0.0,0.0
15:17:26,736414.0,0.0,0.0
15:17:26,736164.0,0.0,0.0
15:17:26,736534.0,0.0,0.0
15:17:26,736223.0,0.0,0.0
15:17:26,736637.0,0.0,0.0
15:17:26,736641.0,0.0,0.0
15:17:26,736398.0,0.0,0.0
15:17:26,736683.0,0.0,0.0
15:17:26,736261.0,0.0,0.0
15:17:26,736563.0,0.0,0.0
15:17:26,736413.0,0.0,0.0
15:17:26,736219.0,0.0,0.0
15:17:26,736608.0,0.0,0.0
15:17:26,736211.0,0.0,0.0
15:17:26,736418.0,0.0,0.0
15:17:26,736363.0,0.0,0.0
15:17:26,736306.0,0.0,0.0
15:17:26,736646.0,0.0,0.0
15:17:26,736186.0,0.0,0.0
15:17:26,736337.0,0.0,0.0
15:17:26,736236.0,0.0,0.0
15:17:26,736126.0,0.0,0.0
15:17:26,736474.0,0.0,0.0
15:17:26,736131.0,0.0,0.0
15:17:26,736415.0,0.0,0.0
15:17:26,736326.0,0.0,0.0
15:17:26,736182.0,0.0,0.0
15:17:26,736526.0,0.0,0.0
15:17:26,736156.0,0.0,0.0
15:17:26,736468.0,0.0,0.0
15:17:26,736381.0,0.0,0.0
15:17:26,736253.0,0.0,0.0
15:17:26,736556.0,0.0,0.0
15:17:26,736190.0,0.0,0.0
15:17:26,736491.0,0.0,0.0
15:17:26,736435.0,0.0,0.0
15:17:26,736346.0,0.0,0.0
15:17:26,736620.0,0.0,0.0
15:17:26,736260.0,0.0,0.0
15:17:26,736586.0,0.0,0.0
15:17:26,736550.0,0.0,0.0
15:17:26,736443.0,0.0,0.0
15:17:26,736730.0,0.0,0.0
15:17:26,736389.0,0.0,0.0
15:17:26,736701.0,0.0,0.0
15:17:26,736582.0,0.0,0.0
15:17:26,736429.0,0.0,0.0
15:17:26,736735.0,0.0,0.0
15:17:26,736413.0,0.0,0.0
15:17:26,736679.0,0.0,0.0
15:17:26,736588.0,0.0,0.0
15:17:26,736388.0,0.0,0.0
15:17:26,736691.0,0.0,0.0
15:17:26,736376.0,0.0,0.0
15:17:26,736665.0,0.0,0.0
15:17:26,736603.0,0.0,0.0
15:17:26,736494.0,0.0,0.0
15:17:26,736802.0,0.0,0.0
15:17:26,736474.0,0.0,0.0
15:17:26,736720.0,0.0,0.0
15:17:26,736591.0,0.0,0.0
15:17:26,736472.0,0.0,0.0
15:17:26,736737.0,0.0,0.0
15:17:27,736381.0,0.0,0.0
15:17:27,736642.0,0.0,0.0
15:17:27,736531.0,0.0,0.0
15:17:27,736406.0,0.0,0.0
15:17:27,736636.0,0.0,0.0
15:17:27,736300.0,0.0,0.0
15:17:27,736513.0,0.0,0.0
15:17:27,736413.0,0.0,0.0
15:17:27,736316.0,0.0,0.0
15:17:27,736631.0,0.0,0.0
15:17:27,736353.0,0.0,0.0
15:17:27,736649.0,0.0,0.0
15:17:27,736570.0,0.0,0.0
15:17:27,736424.0,0.0,0.0
15:17:27,736679.0,0.0,0.0
15:17:27,736344.0,0.0,0.0
15:17:27,736576.0,0.0,0.0
15:17:27,736473.0,0.0,0.0
15:17:27,736362.0,0.0,0.0
15:17:27,736601.0,0.0,0.0
15:17:27,736268.0,0.0,0.0
15:17:27,736473.0,0.0,0.0
15:17:27,736336.0,0.0,0.0
15:17:27,736191.0,0.0,0.0
15:17:27,736442.0,0.0,0.0
15:17:27,736188.0,0.0,0.0
15:17:27,736466.0,0.0,0.0
15:17:27,736467.0,0.0,0.0
15:17:27,736443.0,0.0,0.0
15:17:27,736751.0,0.0,0.0
15:17:27,736345.0,0.0,0.0
15:17:27,736164.0,0.0,0.0
15:17:27,735708.0,0.0,0.0
15:17:27,735726.0,0.0,0.0
15:17:27,736500.0,0.0,0.0
15:17:27,736750.0,0.0,0.0
15:17:27,737336.0,0.0,0.0
15:17:27,737458.0,0.0,0.0
15:17:27,737379.0,0.0,0.0
15:17:27,737381.0,0.0,0.0
15:17:27,737007.0,0.0,0.0
15:17:27,737435.0,0.0,0.0
15:17:27,737425.0,0.0,0.0
15:17:27,737251.0,0.0,0.0
15:17:27,737363.0,0.0,0.0
15:17:27,737009.0,0.0,0.0
15:17:27,737290.0,0.0,0.0
15:17:27,737181.0,0.0,0.0
15:17:27,736933.0,0.0,0.0
15:17:27,737010.0,0.0,0.0
15:17:27,736463.0,0.0,0.0
15:17:27,736574.0,0.0,0.0
15:17:27,736506.0,0.0,0.0
15:17:27,736489.0,0.0,0.0
15:17:27,736833.0,0.0,0.0
15:17:27,736542.0,0.0,0.0
15:17:27,736746.0,0.0,0.0
15:17:27,736716.0,0.0,0.0
15:17:27,736728.0,0.0,0.0
15:17:27,736925.0,0.0,0.0
15:17:27,736301.0,0.0,0.0
15:17:27,736194.0,0.0,0.0
15:17:27,735996.0,0.0,0.0
15:17:27,735948.0,0.0,0.0
15:17:27,736241.0,0.0,0.0
15:17:27,735975.0,0.0,0.0
15:17:27,736188.0,0.0,0.0
15:17:27,736020.0,0.0,0.0
15:17:27,735690.0,0.0,0.0
15:17:27,735699.0,0.0,0.0
15:17:27,735483.0,0.0,0.0
15:17:27,735821.0,0.0,0.0
15:17:27,735773.0,0.0,0.0
15:17:27,735724.0,0.0,0.0
15:17:27,735994.0,0.0,0.0
15:17:27,735699.0,0.0,0.0
15:17:27,735868.0,0.0,0.0
15:17:27,735861.0,0.0,0.0
15:17:27,735827.0,0.0,0.0
15:17:27,736016.0,0.0,0.0
15:17:27,735666.0,0.0,0.0
15:17:27,735868.0,0.0,0.0
15:17:27,735904.0,0.0,0.0
15:17:27,735920.0,0.0,0.0
15:17:27,736199.0,0.0,0.0
15:17:27,735969.0,0.0,0.0
15:17:27,736201.0,0.0,0.0
15:17:27,736134.0,0.0,0.0
15:17:27,736096.0,0.0,0.0
15:17:27,736369.0,0.0,0.0
15:17:27,736183.0,0.0,0.0
15:17:27,736421.0,0.0,0.0
15:17:27,736348.0,0.0,0.0
15:17:27,736257.0,0.0,0.0
15:17:27,736505.0,0.0,0.0
15:17:27,736209.0,0.0,0.0
15:17:27,736425.0,0.0,0.0
15:17:27,736348.0,0.0,0.0
15:17:27,736275.0,0.0,0.0
15:17:27,736487.0,0.0,0.0
15:17:27,736225.0,0.0,0.0
15:17:27,736459.0,0.0,0.0
15:17:27,736396.0,0.0,0.0
15:17:27,736324.0,0.0,0.0
15:17:27,736578.0,0.0,0.0
15:17:27,736311.0,0.0,0.0
15:17:27,736510.0,0.0,0.0
15:17:27,736401.0,0.0,0.0
15:17:27,736327.0,0.0,0.0
15:17:27,736536.0,0.0,0.0
15:17:27,736245.0,0.0,0.0
15:17:27,736454.0,0.0,0.0
15:17:27,736365.0,0.0,0.0
15:17:27,736263.0,0.0,0.0
15:17:27,736486.0,0.0,0.0
15:17:27,736241.0,0.0,0.0
15:17:27,736468.0,0.0,0.0
15:17:27,736354.0,0.0,0.0
15:17:27,736253.0,0.0,0.0
15:17:27,736474.0,0.0,0.0
15:17:27,736198.0,0.0,0.0
15:17:27,736411.0,0.0,0.0
15:17:27,736345.0,0.0,0.0
15:17:27,736236.0,0.0,0.0
15:17:28,736449.0,0.0,0.0
15:17:28,736161.0,0.0,0.0
15:17:28,736339.0,0.0,0.0
15:17:28,736287.0,0.0,0.0
15:17:28,736391.0,0.0,0.0
15:17:28,736782.0,0.0,0.0
15:17:28,736428.0,0.0,0.0
15:17:28,736569.0,0.0,0.0
15:17:28,736454.0,0.0,0.0
15:17:28,736320.0,0.0,0.0
15:17:28,736597.0,0.0,0.0
15:17:28,736328.0,0.0,0.0
15:17:28,736573.0,0.0,0.0
15:17:28,736465.0,0.0,0.0
15:17:28,736406.0,0.0,0.0
15:17:28,736630.0,0.0,0.0
15:17:28,736358.0,0.0,0.0
15:17:28,736604.0,0.0,0.0
15:17:28,736559.0,0.0,0.0
15:17:28,736428.0,0.0,0.0
15:17:28,736628.0,0.0,0.0
15:17:28,736346.0,0.0,0.0
15:17:28,736596.0,0.0,0.0
15:17:28,736488.0,0.0,0.0
15:17:28,736378.0,0.0,0.0
15:17:28,736616.0,0.0,0.0
15:17:28,736269.0,0.0,0.0
15:17:28,736511.0,0.0,0.0
15:17:28,736429.0,0.0,0.0
15:17:28,736299.0,0.0,0.0
15:17:28,736503.0,0.0,0.0
15:17:28,736196.0,0.0,0.0
15:17:28,736428.0,0.0,0.0
15:17:28,736375.0,0.0,0.0
15:17:28,736293.0,0.0,0.0
15:17:28,736533.0,0.0,0.0
15:17:28,736190.0,0.0,0.0
15:17:28,736393.0,0.0,0.0
15:17:28,736329.0,0.0,0.0
15:17:28,736216.0,0.0,0.0
15:17:28,736444.0,0.0,0.0
15:17:28,736110.0,0.0,0.0
15:17:28,736411.0,0.0,0.0
15:17:28,736297.0,0.0,0.0
15:17:28,736202.0,0.0,0.0
15:17:28,736448.0,0.0,0.0
15:17:28,736112.0,0.0,0.0
15:17:28,736268.0,0.0,0.0
15:17:28,736100.0,0.0,0.0
15:17:28,736016.0,0.0,0.0
15:17:28,736300.0,0.0,0.0
15:17:28,736121.0,0.0,0.0
15:17:28,736494.0,0.0,0.0
15:17:28,736480.0,0.0,0.0
15:17:28,736475.0,0.0,0.0
15:17:28,736719.0,0.0,0.0
15:17:28,736386.0,0.0,0.0
15:17:28,736656.0,0.0,0.0
15:17:28,736552.0,0.0,0.0
15:17:28,736407.0,0.0,0.0
15:17:28,736618.0,0.0,0.0
15:17:28,736332.0,0.0,0.0
15:17:28,736720.0,0.0,0.0
15:17:28,736766.0,0.0,0.0
15:17:28,736828.0,0.0,0.0
15:17:28,737211.0,0.0,0.0
15:17:28,736964.0,0.0,0.0
15:17:28,737326.0,0.0,0.0
15:17:28,737356.0,0.0,0.0
15:17:28,737131.0,0.0,0.0
15:17:28,736693.0,0.0,0.0
15:17:28,736031.0,0.0,0.0
15:17:28,736444.0,0.0,0.0
15:17:28,736268.0,0.0,0.0
15:17:28,735931.0,0.0,0.0
15:17:28,736033.0,0.0,0.0
15:17:28,735837.0,0.0,0.0
15:17:28,736135.0,0.0,0.0
15:17:28,736198.0,0.0,0.0
15:17:28,736266.0,0.0,0.0
15:17:28,736364.0,0.0,0.0
15:17:28,735896.0,0.0,0.0
15:17:28,736089.0,0.0,0.0
15:17:28,736030.0,0.0,0.0
15:17:28,736103.0,0.0,0.0
15:17:28,736468.0,0.0,0.0
15:17:28,736216.0,0.0,0.0
15:17:28,736526.0,0.0,0.0
15:17:28,736381.0,0.0,0.0
15:17:28,736121.0,0.0,0.0
15:17:28,736263.0,0.0,0.0
15:17:28,735884.0,0.0,0.0
15:17:28,736253.0,0.0,0.0
15:17:28,736424.0,0.0,0.0
15:17:28,736443.0,0.0,0.0
15:17:28,736598.0,0.0,0.0
15:17:28,736211.0,0.0,0.0
15:17:28,736413.0,0.0,0.0
15:17:28,736328.0,0.0,0.0
15:17:28,736263.0,0.0,0.0
15:17:28,736501.0,0.0,0.0
15:17:28,736246.0,0.0,0.0
15:17:28,736498.0,0.0,0.0
15:17:28,736349.0,0.0,0.0
15:17:28,736303.0,0.0,0.0
15:17:28,736543.0,0.0,0.0
15:17:28,736210.0,0.0,0.0
15:17:28,736480.0,0.0,0.0
15:17:28,736386.0,0.0,0.0
15:17:28,736282.0,0.0,0.0
15:17:28,736516.0,0.0,0.0
15:17:28,736227.0,0.0,0.0
15:17:28,736459.0,0.0,0.0
15:17:28,736386.0,0.0,0.0
15:17:28,736316.0,0.0,0.0
15:17:28,736533.0,0.0,0.0
15:17:28,736226.0,0.0,0.0
15:17:28,736433.0,0.0,0.0
15:17:28,736362.0,0.0,0.0
15:17:28,736341.0,0.0,0.0
15:17:28,736583.0,0.0,0.0
15:17:28,736321.0,0.0,0.0
15:17:28,736556.0,0.0,0.0
15:17:28,736418.0,0.0,0.0
15:17:28,736346.0,0.0,0.0
15:17:28,736547.0,0.0,0.0
15:17:29,736265.0,0.0,0.0
15:17:29,736544.0,0.0,0.0
15:17:29,736435.0,0.0,0.0
15:17:29,736169.0,0.0,0.0
15:17:29,736308.0,0.0,0.0
15:17:29,736329.0,0.0,0.0
15:17:29,736624.0,0.0,0.0
15:17:29,736498.0,0.0,0.0
15:17:29,736422.0,0.0,0.0
15:17:29,736579.0,0.0,0.0
15:17:29,736248.0,0.0,0.0
15:17:29,736499.0,0.0,0.0
15:17:29,736483.0,0.0,0.0
15:17:29,736513.0,0.0,0.0
15:17:29,736687.0,0.0,0.0
15:17:29,736444.0,0.0,0.0
15:17:29,736663.0,0.0,0.0
15:17:29,736545.0,0.0,0.0
15:17:29,736485.0,0.0,0.0
15:17:29,736663.0,0.0,0.0
15:17:29,736372.0,0.0,0.0
15:17:29,736583.0,0.0,0.0
15:17:29,736513.0,0.0,0.0
15:17:29,736413.0,0.0,0.0
15:17:29,736568.0,0.0,0.0
15:17:29,736328.0,0.0,0.0
15:17:29,736611.0,0.0,0.0
15:17:29,736577.0,0.0,0.0
15:17:29,736612.0,0.0,0.0
15:17:29,736890.0,0.0,0.0
15:17:29,736671.0,0.0,0.0
15:17:29,736801.0,0.0,0.0
15:17:29,736588.0,0.0,0.0
15:17:29,736484.0,0.0,0.0
15:17:29,736659.0,0.0,0.0
15:17:29,736476.0,0.0,0.0
15:17:29,736733.0,0.0,0.0
15:17:29,736658.0,0.0,0.0
15:17:29,736654.0,0.0,0.0
15:17:29,736848.0,0.0,0.0
15:17:29,736589.0,0.0,0.0
15:17:29,736758.0,0.0,0.0
15:17:29,736650.0,0.0,0.0
15:17:29,736666.0,0.0,0.0
15:17:29,736801.0,0.0,0.0
15:17:29,736514.0,0.0,0.0
15:17:29,736717.0,0.0,0.0
15:17:29,736593.0,0.0,0.0
15:17:29,736494.0,0.0,0.0
15:17:29,736661.0,0.0,0.0
15:17:29,736331.0,0.0,0.0
15:17:29,736484.0,0.0,0.0
15:17:29,736361.0,0.0,0.0
15:17:29,736351.0,0.0,0.0
15:17:29,736407.0,0.0,0.0
15:17:29,735994.0,0.0,0.0
15:17:29,736298.0,0.0,0.0
15:17:29,736345.0,0.0,0.0
15:17:29,736314.0,0.0,0.0
15:17:29,736458.0,0.0,0.0
15:17:29,736229.0,0.0,0.0
15:17:29,736536.0,0.0,0.0
15:17:29,736510.0,0.0,0.0
15:17:29,736583.0,0.0,0.0
15:17:29,736874.0,0.0,0.0
15:17:29,736679.0,0.0,0.0
15:17:29,736794.0,0.0,0.0
15:17:29,736668.0,0.0,0.0
15:17:29,736843.0,0.0,0.0
15:17:29,737181.0,0.0,0.0
15:17:29,736953.0,0.0,0.0
15:17:29,737187.0,0.0,0.0
15:17:29,736944.0,0.0,0.0
15:17:29,736736.0,0.0,0.0
15:17:29,736728.0,0.0,0.0
15:17:29,736310.0,0.0,0.0
15:17:29,736489.0,0.0,0.0
15:17:29,736306.0,0.0,0.0
15:17:29,736169.0,0.0,0.0
15:17:29,736248.0,0.0,0.0
15:17:29,735974.0,0.0,0.0
15:17:29,736198.0,0.0,0.0
15:17:29,736110.0,0.0,0.0
15:17:29,736061.0,0.0,0.0
15:17:29,736118.0,0.0,0.0
15:17:29,735806.0,0.0,0.0
15:17:29,735911.0,0.0,0.0
15:17:29,735733.0,0.0,0.0
15:17:29,735653.0,0.0,0.0
15:17:29,735776.0,0.0,0.0
15:17:29,735567.0,0.0,0.0
15:17:29,735796.0,0.0,0.0
15:17:29,735737.0,0.0,0.0
15:17:29,735719.0,0.0,0.0
15:17:29,735843.0,0.0,0.0
15:17:29,735575.0,0.0,0.0
15:17:29,735911.0,0.0,0.0
15:17:29,735976.0,0.0,0.0
15:17:29,735982.0,0.0,0.0
15:17:29,736154.0,0.0,0.0
15:17:29,735887.0,0.0,0.0
15:17:29,736117.0,0.0,0.0
15:17:29,735951.0,0.0,0.0
15:17:29,735824.0,0.0,0.0
15:17:29,735968.0,0.0,0.0
15:17:29,735757.0,0.0,0.0
15:17:29,735993.0,0.0,0.0
15:17:29,735945.0,0.0,0.0
15:17:29,735929.0,0.0,0.0
15:17:29,736019.0,0.0,0.0
15:17:29,735731.0,0.0,0.0
15:17:29,735941.0,0.0,0.0
15:17:29,735888.0,0.0,0.0
15:17:29,735882.0,0.0,0.0
15:17:29,736046.0,0.0,0.0
15:17:29,735866.0,0.0,0.0
15:17:29,736142.0,0.0,0.0
15:17:29,736050.0,0.0,0.0
15:17:29,736002.0,0.0,0.0
15:17:29,736223.0,0.0,0.0
15:17:29,736012.0,0.0,0.0
15:17:29,736206.0,0.0,0.0
15:17:29,736051.0,0.0,0.0
15:17:29,736043.0,0.0,0.0
15:17:29,736194.0,0.0,0.0
15:17:30,735983.0,0.0,0.0
15:17:30,736234.0,0.0,0.0
15:17:30,736129.0,0.0,0.0
15:17:30,736075.0,0.0,0.0
15:17:30,736223.0,0.0,0.0
15:17:30,735969.0,0.0,0.0
15:17:30,736193.0,0.0,0.0
15:17:30,736109.0,0.0,0.0
15:17:30,736063.0,0.0,0.0
15:17:30,736219.0,0.0,0.0
15:17:30,735988.0,0.0,0.0
15:17:30,736194.0,0.0,0.0
15:17:30,736099.0,0.0,0.0
15:17:30,736085.0,0.0,0.0
15:17:30,736225.0,0.0,0.0
15:17:30,736008.0,0.0,0.0
15:17:30,736194.0,0.0,0.0
15:17:30,736076.0,0.0,0.0
15:17:30,736058.0,0.0,0.0
15:17:30,736211.0,0.0,0.0
15:17:30,735967.0,0.0,0.0
15:17:30,736107.0,0.0,0.0
15:17:30,735935.0,0.0,0.0
15:17:30,735970.0,0.0,0.0
15:17:30,736272.0,0.0,0.0
15:17:30,736156.0,0.0,0.0
15:17:30,736241.0,0.0,0.0
15:17:30,735994.0,0.0,0.0
15:17:30,735908.0,0.0,0.0
15:17:30,736070.0,0.0,0.0
15:17:30,735889.0,0.0,0.0
15:17:30,736167.0,0.0,0.0
15:17:30,736116.0,0.0,0.0
15:17:30,736087.0,0.0,0.0
15:17:30,736253.0,0.0,0.0
15:17:30,735999.0,0.0,0.0
15:17:30,736186.0,0.0,0.0
15:17:30,736092.0,0.0,0.0
15:17:30,736072.0,0.0,0.0
15:17:30,736188.0,0.0,0.0
15:17:30,735949.0,0.0,0.0
15:17:30,736148.0,0.0,0.0
15:17:30,735995.0,0.0,0.0
15:17:30,735953.0,0.0,0.0
15:17:30,736112.0,0.0,0.0
15:17:30,735881.0,0.0,0.0
15:17:30,736097.0,0.0,0.0
15:17:30,736020.0,0.0,0.0
15:17:30,735969.0,0.0,0.0
15:17:30,736125.0,0.0,0.0
15:17:30,735909.0,0.0,0.0
15:17:30,736168.0,0.0,0.0
15:17:30,736077.0,0.0,0.0
15:17:30,736053.0,0.0,0.0
15:17:30,736233.0,0.0,0.0
15:17:30,736009.0,0.0,0.0
15:17:30,736227.0,0.0,0.0
15:17:30,736128.0,0.0,0.0
15:17:30,736075.0,0.0,0.0
15:17:30,736228.0,0.0,0.0
15:17:30,735985.0,0.0,0.0
15:17:30,736096.0,0.0,0.0
15:17:30,735858.0,0.0,0.0
15:17:30,735680.0,0.0,0.0
15:17:30,735673.0,0.0,0.0
15:17:30,735066.0,0.0,0.0
15:17:30,734860.0,0.0,0.0
15:17:30,734643.0,0.0,0.0
15:17:30,734774.0,0.0,0.0
15:17:30,735178.0,0.0,0.0
15:17:30,735306.0,0.0,0.0
15:17:30,735753.0,0.0,0.0
15:17:30,735754.0,0.0,0.0
15:17:30,735818.0,0.0,0.0
15:17:30,736029.0,0.0,0.0
15:17:30,735859.0,0.0,0.0
15:17:30,736082.0,0.0,0.0
15:17:30,735901.0,0.0,0.0
15:17:30,735751.0,0.0,0.0
15:17:30,735962.0,0.0,0.0
15:17:30,735776.0,0.0,0.0
15:17:30,735959.0,0.0,0.0
15:17:30,735430.0,0.0,0.0
15:17:30,734938.0,0.0,0.0
15:17:30,734894.0,0.0,0.0
15:17:30,734786.0,0.0,0.0
15:17:30,735381.0,0.0,0.0
15:17:30,735457.0,0.0,0.0
15:17:30,735737.0,0.0,0.0
15:17:30,736052.0,0.0,0.0
15:17:30,735823.0,0.0,0.0
15:17:30,736138.0,0.0,0.0
15:17:30,735915.0,0.0,0.0
15:17:30,735844.0,0.0,0.0
15:17:30,735997.0,0.0,0.0
15:17:30,735675.0,0.0,0.0
15:17:30,735827.0,0.0,0.0
15:17:30,735669.0,0.0,0.0
15:17:30,735623.0,0.0,0.0
15:17:30,735713.0,0.0,0.0
15:17:30,735435.0,0.0,0.0
15:17:30,735597.0,0.0,0.0
15:17:30,735385.0,0.0,0.0
15:17:30,735326.0,0.0,0.0
15:17:30,735449.0,0.0,0.0
15:17:30,735179.0,0.0,0.0
15:17:30,735406.0,0.0,0.0
15:17:30,735311.0,0.0,0.0
15:17:30,735347.0,0.0,0.0
15:17:30,735464.0,0.0,0.0
15:17:30,734935.0,0.0,0.0
15:17:30,735011.0,0.0,0.0
15:17:30,735034.0,0.0,0.0
15:17:30,735186.0,0.0,0.0
15:17:30,735474.0,0.0,0.0
15:17:30,735304.0,0.0,0.0
15:17:30,735460.0,0.0,0.0
15:17:30,735053.0,0.0,0.0
15:17:30,734806.0,0.0,0.0
15:17:30,735166.0,0.0,0.0
15:17:30,735555.0,0.0,0.0
15:17:30,735799.0,0.0,0.0
15:17:30,734816.0,0.0,0.0
15:17:30,734164.0,0.0,0.0
15:17:31,734319.0,0.0,0.0
15:17:31,734346.0,0.0,0.0
15:17:31,734726.0,0.0,0.0
15:17:31,734677.0,0.0,0.0
15:17:31,734823.0,0.0,0.0
15:17:31,735140.0,0.0,0.0
15:17:31,734977.0,0.0,0.0
15:17:31,735256.0,0.0,0.0
15:17:31,735191.0,0.0,0.0
15:17:31,735238.0,0.0,0.0
15:17:31,735467.0,0.0,0.0
15:17:31,735265.0,0.0,0.0
15:17:31,735554.0,0.0,0.0
15:17:31,735412.0,0.0,0.0
15:17:31,735368.0,0.0,0.0
15:17:31,735536.0,0.0,0.0
15:17:31,735247.0,0.0,0.0
15:17:31,735432.0,0.0,0.0
15:17:31,735209.0,0.0,0.0
15:17:31,735153.0,0.0,0.0
15:17:31,735319.0,0.0,0.0
15:17:31,735036.0,0.0,0.0
15:17:31,735294.0,0.0,0.0
15:17:31,735167.0,0.0,0.0
15:17:31,735144.0,0.0,0.0
15:17:31,735301.0,0.0,0.0
15:17:31,735069.0,0.0,0.0
15:17:31,735331.0,0.0,0.0
15:17:31,735174.0,0.0,0.0
15:17:31,735186.0,0.0,0.0
15:17:31,735373.0,0.0,0.0
15:17:31,735111.0,0.0,0.0
15:17:31,735325.0,0.0,0.0
15:17:31,735172.0,0.0,0.0
15:17:31,735156.0,0.0,0.0
15:17:31,735306.0,0.0,0.0
15:17:31,734996.0,0.0,0.0
15:17:31,735232.0,0.0,0.0
15:17:31,735057.0,0.0,0.0
15:17:31,735067.0,0.0,0.0
15:17:31,735239.0,0.0,0.0
15:17:31,734943.0,0.0,0.0
15:17:31,735219.0,0.0,0.0
15:17:31,735058.0,0.0,0.0
15:17:31,735035.0,0.0,0.0
15:17:31,735174.0,0.0,0.0
15:17:31,734909.0,0.0,0.0
15:17:31,735219.0,0.0,0.0
15:17:31,735023.0,0.0,0.0
15:17:31,735010.0,0.0,0.0
15:17:31,735183.0,0.0,0.0
15:17:31,734896.0,0.0,0.0
15:17:31,735227.0,0.0,0.0
15:17:31,735068.0,0.0,0.0
15:17:31,735094.0,0.0,0.0
15:17:31,735227.0,0.0,0.0
15:17:31,734933.0,0.0,0.0
15:17:31,735272.0,0.0,0.0
15:17:31,735093.0,0.0,0.0
15:17:31,735091.0,0.0,0.0
15:17:31,735238.0,0.0,0.0
15:17:31,734921.0,0.0,0.0
15:17:31,735212.0,0.0,0.0
15:17:31,735001.0,0.0,0.0
15:17:31,734990.0,0.0,0.0
15:17:31,735183.0,0.0,0.0
15:17:31,734846.0,0.0,0.0
15:17:31,735184.0,0.0,0.0
15:17:31,734974.0,0.0,0.0
15:17:31,734924.0,0.0,0.0
15:17:31,735089.0,0.0,0.0
15:17:31,734721.0,0.0,0.0
15:17:31,734976.0,0.0,0.0
15:17:31,734768.0,0.0,0.0
15:17:31,734733.0,0.0,0.0
15:17:31,734900.0,0.0,0.0
15:17:31,734511.0,0.0,0.0
15:17:31,734813.0,0.0,0.0
15:17:31,734610.0,0.0,0.0
15:17:31,734598.0,0.0,0.0
15:17:31,734769.0,0.0,0.0
15:17:31,734439.0,0.0,0.0
15:17:31,734786.0,0.0,0.0
15:17:31,734586.0,0.0,0.0
15:17:31,734619.0,0.0,0.0
15:17:31,734861.0,0.0,0.0
15:17:31,734476.0,0.0,0.0
15:17:31,734826.0,0.0,0.0
15:17:31,734624.0,0.0,0.0
15:17:31,734693.0,0.0,0.0
15:17:31,734959.0,0.0,0.0
15:17:31,734593.0,0.0,0.0
15:17:31,734933.0,0.0,0.0
15:17:31,734712.0,0.0,0.0
15:17:31,734846.0,0.0,0.0
15:17:31,735286.0,0.0,0.0
15:17:31,735059.0,0.0,0.0
15:17:31,735389.0,0.0,0.0
15:17:31,735090.0,0.0,0.0
15:17:31,735086.0,0.0,0.0
15:17:31,735358.0,0.0,0.0
15:17:31,735033.0,0.0,0.0
15:17:31,735373.0,0.0,0.0
15:17:31,735084.0,0.0,0.0
15:17:31,735028.0,0.0,0.0
15:17:31,735156.0,0.0,0.0
15:17:31,734663.0,0.0,0.0
15:17:31,734711.0,0.0,0.0
15:17:31,734106.0,0.0,0.0
15:17:31,734243.0,0.0,0.0
15:17:31,734918.0,0.0,0.0
15:17:31,735078.0,0.0,0.0
15:17:31,735835.0,0.0,0.0
15:17:31,735801.0,0.0,0.0
15:17:31,735896.0,0.0,0.0
15:17:31,736105.0,0.0,0.0
15:17:31,735638.0,0.0,0.0
15:17:31,735932.0,0.0,0.0
15:17:31,735553.0,0.0,0.0
15:17:31,735281.0,0.0,0.0
15:17:31,735302.0,0.0,0.0
15:17:31,734914.0,0.0,0.0
15:17:31,735320.0,0.0,0.0
15:17:31,735098.0,0.0,0.0
15:17:31,735035.0,0.0,0.0
15:17:32,735174.0,0.0,0.0
15:17:32,734727.0,0.0,0.0
15:17:32,735084.0,0.0,0.0
15:17:32,734719.0,0.0,0.0
15:17:32,734558.0,0.0,0.0
15:17:32,734777.0,0.0,0.0
15:17:32,734413.0,0.0,0.0
15:17:32,734749.0,0.0,0.0
15:17:32,734367.0,0.0,0.0
15:17:32,734239.0,0.0,0.0
15:17:32,734354.0,0.0,0.0
15:17:32,734019.0,0.0,0.0
15:17:32,734303.0,0.0,0.0
15:17:32,734059.0,0.0,0.0
15:17:32,734166.0,0.0,0.0
15:17:32,734263.0,0.0,0.0
15:17:32,734047.0,0.0,0.0
15:17:32,734406.0,0.0,0.0
15:17:32,734204.0,0.0,0.0
15:17:32,734349.0,0.0,0.0
15:17:32,734556.0,0.0,0.0
15:17:32,734321.0,0.0,0.0
15:17:32,734671.0,0.0,0.0
15:17:32,734426.0,0.0,0.0
15:17:32,734503.0,0.0,0.0
15:17:32,734661.0,0.0,0.0
15:17:32,734403.0,0.0,0.0
15:17:32,734756.0,0.0,0.0
15:17:32,734537.0,0.0,0.0
15:17:32,734590.0,0.0,0.0
15:17:32,734699.0,0.0,0.0
15:17:32,734417.0,0.0,0.0
15:17:32,734798.0,0.0,0.0
15:17:32,734519.0,0.0,0.0
15:17:32,734593.0,0.0,0.0
15:17:32,734776.0,0.0,0.0
15:17:32,734501.0,0.0,0.0
15:17:32,734858.0,0.0,0.0
15:17:32,734613.0,0.0,0.0
15:17:32,734689.0,0.0,0.0
15:17:32,734856.0,0.0,0.0
15:17:32,734548.0,0.0,0.0
15:17:32,734916.0,0.0,0.0
15:17:32,734644.0,0.0,0.0
15:17:32,734691.0,0.0,0.0
15:17:32,734801.0,0.0,0.0
15:17:32,734493.0,0.0,0.0
15:17:32,734846.0,0.0,0.0
15:17:32,734588.0,0.0,0.0
15:17:32,734643.0,0.0,0.0
15:17:32,734809.0,0.0,0.0
15:17:32,734516.0,0.0,0.0
15:17:32,734823.0,0.0,0.0
15:17:32,734571.0,0.0,0.0
15:17:32,734681.0,0.0,0.0
15:17:32,734845.0,0.0,0.0
15:17:32,734549.0,0.0,0.0
15:17:32,734950.0,0.0,0.0
15:17:32,734737.0,0.0,0.0
15:17:32,734813.0,0.0,0.0
15:17:32,734961.0,0.0,0.0
15:17:32,734671.0,0.0,0.0
15:17:32,735049.0,0.0,0.0
15:17:32,734799.0,0.0,0.0
15:17:32,734836.0,0.0,0.0
15:17:32,734946.0,0.0,0.0
15:17:32,734581.0,0.0,0.0
15:17:32,734981.0,0.0,0.0
15:17:32,734909.0,0.0,0.0
15:17:32,735024.0,0.0,0.0
15:17:32,735076.0,0.0,0.0
15:17:32,734678.0,0.0,0.0
15:17:32,734932.0,0.0,0.0
15:17:32,734727.0,0.0,0.0
15:17:32,734809.0,0.0,0.0
15:17:32,734988.0,0.0,0.0
15:17:32,734711.0,0.0,0.0
15:17:32,734994.0,0.0,0.0
15:17:32,734769.0,0.0,0.0
15:17:32,734828.0,0.0,0.0
15:17:32,735000.0,0.0,0.0
15:17:32,734716.0,0.0,0.0
15:17:32,735023.0,0.0,0.0
15:17:32,734772.0,0.0,0.0
15:17:32,734833.0,0.0,0.0
15:17:32,734959.0,0.0,0.0
15:17:32,734661.0,0.0,0.0
15:17:32,734981.0,0.0,0.0
15:17:32,734734.0,0.0,0.0
15:17:32,734803.0,0.0,0.0
15:17:32,734887.0,0.0,0.0
15:17:32,734608.0,0.0,0.0
15:17:32,734927.0,0.0,0.0
15:17:32,734711.0,0.0,0.0
15:17:32,734777.0,0.0,0.0
15:17:32,734903.0,0.0,0.0
15:17:32,734649.0,0.0,0.0
15:17:32,734978.0,0.0,0.0
15:17:32,734715.0,0.0,0.0
15:17:32,734775.0,0.0,0.0
15:17:32,734931.0,0.0,0.0
15:17:32,734691.0,0.0,0.0
15:17:32,735016.0,0.0,0.0
15:17:32,734768.0,0.0,0.0
15:17:32,734821.0,0.0,0.0
15:17:32,734959.0,0.0,0.0
15:17:32,734650.0,0.0,0.0
15:17:32,734939.0,0.0,0.0
15:17:32,734654.0,0.0,0.0
15:17:32,734529.0,0.0,0.0
15:17:32,734616.0,0.0,0.0
15:17:32,734446.0,0.0,0.0
15:17:32,734900.0,0.0,0.0
15:17:32,734813.0,0.0,0.0
15:17:32,734972.0,0.0,0.0
15:17:32,735239.0,0.0,0.0
15:17:32,735059.0,0.0,0.0
15:17:32,735487.0,0.0,0.0
15:17:32,735285.0,0.0,0.0
15:17:32,735291.0,0.0,0.0
15:17:32,735420.0,0.0,0.0
15:17:32,735105.0,0.0,0.0
15:17:32,735429.0,0.0,0.0
15:17:32,735240.0,0.0,0.0
15:17:32,735185.0,0.0,0.0
15:17:33,735171.0,0.0,0.0
15:17:33,734609.0,0.0,0.0
15:17:33,734627.0,0.0,0.0
15:17:33,734563.0,0.0,0.0
15:17:33,735141.0,0.0,0.0
15:17:33,735894.0,0.0,0.0
15:17:33,736035.0,0.0,0.0
15:17:33,736553.0,0.0,0.0
15:17:33,736314.0,0.0,0.0
15:17:33,736223.0,0.0,0.0
15:17:33,736247.0,0.0,0.0
15:17:33,735763.0,0.0,0.0
15:17:33,735931.0,0.0,0.0
15:17:33,735592.0,0.0,0.0
15:17:33,735539.0,0.0,0.0
15:17:33,735583.0,0.0,0.0
15:17:33,735198.0,0.0,0.0
15:17:33,735522.0,0.0,0.0
15:17:33,735227.0,0.0,0.0
15:17:33,735158.0,0.0,0.0
15:17:33,735253.0,0.0,0.0
15:17:33,734927.0,0.0,0.0
15:17:33,735252.0,0.0,0.0
15:17:33,734988.0,0.0,0.0
15:17:33,735060.0,0.0,0.0
15:17:33,735104.0,0.0,0.0
15:17:33,734435.0,0.0,0.0
15:17:33,734694.0,0.0,0.0
15:17:33,734752.0,0.0,0.0
15:17:33,735094.0,0.0,0.0
15:17:33,735315.0,0.0,0.0
15:17:33,734872.0,0.0,0.0
15:17:33,735121.0,0.0,0.0
15:17:33,734738.0,0.0,0.0
15:17:33,734356.0,0.0,0.0
15:17:33,734050.0,0.0,0.0
15:17:33,733725.0,0.0,0.0
15:17:33,734180.0,0.0,0.0
15:17:33,734263.0,0.0,0.0
15:17:33,734476.0,0.0,0.0
15:17:33,734657.0,0.0,0.0
15:17:33,734497.0,0.0,0.0
15:17:33,734998.0,0.0,0.0
15:17:33,734867.0,0.0,0.0
15:17:33,734874.0,0.0,0.0
15:17:33,734949.0,0.0,0.0
15:17:33,734621.0,0.0,0.0
15:17:33,734881.0,0.0,0.0
15:17:33,734631.0,0.0,0.0
15:17:33,734682.0,0.0,0.0
15:17:33,734793.0,0.0,0.0
15:17:33,734549.0,0.0,0.0
15:17:33,734913.0,0.0,0.0
15:17:33,734699.0,0.0,0.0
15:17:33,734808.0,0.0,0.0
15:17:33,734987.0,0.0,0.0
15:17:33,734725.0,0.0,0.0
15:17:33,735034.0,0.0,0.0
15:17:33,734819.0,0.0,0.0
15:17:33,734894.0,0.0,0.0
15:17:33,735029.0,0.0,0.0
15:17:33,734730.0,0.0,0.0
15:17:33,735071.0,0.0,0.0
15:17:33,734811.0,0.0,0.0
15:17:33,734890.0,0.0,0.0
15:17:33,735039.0,0.0,0.0
15:17:33,734758.0,0.0,0.0
15:17:33,735087.0,0.0,0.0
15:17:33,734828.0,0.0,0.0
15:17:33,734887.0,0.0,0.0
15:17:33,735014.0,0.0,0.0
15:17:33,734716.0,0.0,0.0
15:17:33,735046.0,0.0,0.0
15:17:33,734784.0,0.0,0.0
15:17:33,734893.0,0.0,0.0
15:17:33,735026.0,0.0,0.0
15:17:33,734718.0,0.0,0.0
15:17:33,735078.0,0.0,0.0
15:17:33,734801.0,0.0,0.0
15:17:33,734894.0,0.0,0.0
15:17:33,735062.0,0.0,0.0
15:17:33,734787.0,0.0,0.0
15:17:33,735139.0,0.0,0.0
15:17:33,734850.0,0.0,0.0
15:17:33,734924.0,0.0,0.0
15:17:33,735098.0,0.0,0.0
15:17:33,734803.0,0.0,0.0
15:17:33,735115.0,0.0,0.0
15:17:33,734847.0,0.0,0.0
15:17:33,734909.0,0.0,0.0
15:17:33,735068.0,0.0,0.0
15:17:33,734766.0,0.0,0.0
15:17:33,735126.0,0.0,0.0
15:17:33,734839.0,0.0,0.0
15:17:33,734929.0,0.0,0.0
15:17:33,735091.0,0.0,0.0
15:17:33,734822.0,0.0,0.0
15:17:33,735192.0,0.0,0.0
15:17:33,734901.0,0.0,0.0
15:17:33,734996.0,0.0,0.0
15:17:33,735194.0,0.0,0.0
15:17:33,734892.0,0.0,0.0
15:17:33,735272.0,0.0,0.0
15:17:33,735004.0,0.0,0.0
15:17:33,735052.0,0.0,0.0
15:17:33,735231.0,0.0,0.0
15:17:33,734943.0,0.0,0.0
15:17:33,735323.0,0.0,0.0
15:17:33,735072.0,0.0,0.0
15:17:33,735129.0,0.0,0.0
15:17:33,735296.0,0.0,0.0
15:17:33,735012.0,0.0,0.0
15:17:33,735369.0,0.0,0.0
15:17:33,735108.0,0.0,0.0
15:17:33,735170.0,0.0,0.0
15:17:33,735329.0,0.0,0.0
15:17:33,735005.0,0.0,0.0
15:17:33,735364.0,0.0,0.0
15:17:33,735080.0,0.0,0.0
15:17:33,735179.0,0.0,0.0
15:17:33,735326.0,0.0,0.0
15:17:33,735041.0,0.0,0.0
15:17:33,735430.0,0.0,0.0
15:17:33,735126.0,0.0,0.0
15:17:33,735192.0,0.0,0.0
15:17:34,735338.0,0.0,0.0
15:17:34,735017.0,0.0,0.0
15:17:34,735403.0,0.0,0.0
15:17:34,735109.0,0.0,0.0
15:17:34,735224.0,0.0,0.0
15:17:34,735416.0,0.0,0.0
15:17:34,735076.0,0.0,0.0
15:17:34,735408.0,0.0,0.0
15:17:34,735117.0,0.0,0.0
15:17:34,735191.0,0.0,0.0
15:17:34,735350.0,0.0,0.0
15:17:34,735011.0,0.0,0.0
15:17:34,735299.0,0.0,0.0
15:17:34,734968.0,0.0,0.0
15:17:34,735231.0,0.0,0.0
15:17:34,735516.0,0.0,0.0
15:17:34,735122.0,0.0,0.0
15:17:34,735386.0,0.0,0.0
15:17:34,735043.0,0.0,0.0
15:17:34,735095.0,0.0,0.0
15:17:34,735258.0,0.0,0.0
15:17:34,734993.0,0.0,0.0
15:17:34,735383.0,0.0,0.0
15:17:34,735087.0,0.0,0.0
15:17:34,735165.0,0.0,0.0
15:17:34,735307.0,0.0,0.0
15:17:34,734985.0,0.0,0.0
15:17:34,735401.0,0.0,0.0
15:17:34,735124.0,0.0,0.0
15:17:34,735184.0,0.0,0.0
15:17:34,735359.0,0.0,0.0
15:17:34,734973.0,0.0,0.0
15:17:34,735329.0,0.0,0.0
15:17:34,735085.0,0.0,0.0
15:17:34,735144.0,0.0,0.0
15:17:34,735301.0,0.0,0.0
15:17:34,734980.0,0.0,0.0
15:17:34,735383.0,0.0,0.0
15:17:34,735091.0,0.0,0.0
15:17:34,735171.0,0.0,0.0
15:17:34,735323.0,0.0,0.0
15:17:34,734954.0,0.0,0.0
15:17:34,735359.0,0.0,0.0
15:17:34,735045.0,0.0,0.0
15:17:34,735099.0,0.0,0.0
15:17:34,735236.0,0.0,0.0
15:17:34,734869.0,0.0,0.0
15:17:34,735273.0,0.0,0.0
15:17:34,734983.0,0.0,0.0
15:17:34,735053.0,0.0,0.0
15:17:34,735199.0,0.0,0.0
15:17:34,734810.0,0.0,0.0
15:17:34,735223.0,0.0,0.0
15:17:34,734928.0,0.0,0.0
15:17:34,734994.0,0.0,0.0
15:17:34,735147.0,0.0,0.0
15:17:34,734801.0,0.0,0.0
15:17:34,735138.0,0.0,0.0
15:17:34,734824.0,0.0,0.0
15:17:34,734886.0,0.0,0.0
15:17:34,735073.0,0.0,0.0
15:17:34,734763.0,0.0,0.0
15:17:34,735156.0,0.0,0.0
15:17:34,734864.0,0.0,0.0
15:17:34,734956.0,0.0,0.0
15:17:34,735100.0,0.0,0.0
15:17:34,734734.0,0.0,0.0
15:17:34,735144.0,0.0,0.0
15:17:34,734844.0,0.0,0.0
15:17:34,734952.0,0.0,0.0
15:17:34,735103.0,0.0,0.0
15:17:34,734751.0,0.0,0.0
15:17:34,735113.0,0.0,0.0
15:17:34,734803.0,0.0,0.0
15:17:34,734906.0,0.0,0.0
15:17:34,735051.0,0.0,0.0
15:17:34,734696.0,0.0,0.0
15:17:34,735088.0,0.0,0.0
15:17:34,734814.0,0.0,0.0
15:17:34,734938.0,0.0,0.0
15:17:34,735081.0,0.0,0.0
15:17:34,734732.0,0.0,0.0
15:17:34,735109.0,0.0,0.0
15:17:34,734788.0,0.0,0.0
15:17:34,734913.0,0.0,0.0
15:17:34,735069.0,0.0,0.0
15:17:34,734745.0,0.0,0.0
15:17:34,735139.0,0.0,0.0
15:17:34,734841.0,0.0,0.0
15:17:34,734921.0,0.0,0.0
15:17:34,735081.0,0.0,0.0
15:17:34,734743.0,0.0,0.0
15:17:34,735114.0,0.0,0.0
15:17:34,734819.0,0.0,0.0
15:17:34,734914.0,0.0,0.0
15:17:34,735086.0,0.0,0.0
15:17:34,734759.0,0.0,0.0
15:17:34,735166.0,0.0,0.0
15:17:34,734836.0,0.0,0.0
15:17:34,734954.0,0.0,0.0
15:17:34,735088.0,0.0,0.0
15:17:34,734729.0,0.0,0.0
15:17:34,735144.0,0.0,0.0
15:17:34,734830.0,0.0,0.0
15:17:34,734921.0,0.0,0.0
15:17:34,735072.0,0.0,0.0
15:17:34,734739.0,0.0,0.0
15:17:34,735166.0,0.0,0.0
15:17:34,734847.0,0.0,0.0
15:17:34,734896.0,0.0,0.0
15:17:34,735053.0,0.0,0.0
15:17:34,734680.0,0.0,0.0
15:17:34,735046.0,0.0,0.0
15:17:34,734912.0,0.0,0.0
15:17:34,735162.0,0.0,0.0
15:17:34,735188.0,0.0,0.0
15:17:34,734713.0,0.0,0.0
15:17:34,735026.0,0.0,0.0
15:17:34,734669.0,0.0,0.0
15:17:34,734824.0,0.0,0.0
15:17:34,734998.0,0.0,0.0
15:17:34,734691.0,0.0,0.0
15:17:34,735084.0,0.0,0.0
15:17:34,734771.0,0.0,0.0
15:17:34,734929.0,0.0,0.0
15:17:35,735074.0,0.0,0.0
15:17:35,734747.0,0.0,0.0
15:17:35,735114.0,0.0,0.0
15:17:35,734775.0,0.0,0.0
15:17:35,734859.0,0.0,0.0
15:17:35,734997.0,0.0,0.0
15:17:35,734719.0,0.0,0.0
15:17:35,735102.0,0.0,0.0
15:17:35,734756.0,0.0,0.0
15:17:35,734860.0,0.0,0.0
15:17:35,734991.0,0.0,0.0
15:17:35,734670.0,0.0,0.0
15:17:35,735052.0,0.0,0.0
15:17:35,734747.0,0.0,0.0
15:17:35,734843.0,0.0,0.0
15:17:35,734985.0,0.0,0.0
15:17:35,734694.0,0.0,0.0
15:17:35,735101.0,0.0,0.0
15:17:35,734789.0,0.0,0.0
15:17:35,734818.0,0.0,0.0
15:17:35,734934.0,0.0,0.0
15:17:35,734613.0,0.0,0.0
15:17:35,734958.0,0.0,0.0
15:17:35,734650.0,0.0,0.0
15:17:35,734751.0,0.0,0.0
15:17:35,734896.0,0.0,0.0
15:17:35,734578.0,0.0,0.0
15:17:35,734933.0,0.0,0.0
15:17:35,734654.0,0.0,0.0
15:17:35,734774.0,0.0,0.0
15:17:35,734916.0,0.0,0.0
15:17:35,734559.0,0.0,0.0
15:17:35,734894.0,0.0,0.0
15:17:35,734609.0,0.0,0.0
15:17:35,734659.0,0.0,0.0
15:17:35,734754.0,0.0,0.0
15:17:35,734431.0,0.0,0.0
15:17:35,734738.0,0.0,0.0
15:17:35,734413.0,0.0,0.0
15:17:35,734514.0,0.0,0.0
15:17:35,734674.0,0.0,0.0
15:17:35,734324.0,0.0,0.0
15:17:35,734679.0,0.0,0.0
15:17:35,734359.0,0.0,0.0
15:17:35,734439.0,0.0,0.0
15:17:35,734568.0,0.0,0.0
15:17:35,734286.0,0.0,0.0
15:17:35,734614.0,0.0,0.0
15:17:35,734334.0,0.0,0.0
15:17:35,734439.0,0.0,0.0
15:17:35,734519.0,0.0,0.0
15:17:35,734222.0,0.0,0.0
15:17:35,734568.0,0.0,0.0
15:17:35,734261.0,0.0,0.0
15:17:35,734370.0,0.0,0.0
15:17:35,734486.0,0.0,0.0
15:17:35,734153.0,0.0,0.0
15:17:35,734498.0,0.0,0.0
15:17:35,734219.0,0.0,0.0
15:17:35,734333.0,0.0,0.0
15:17:35,734440.0,0.0,0.0
15:17:35,734122.0,0.0,0.0
15:17:35,734443.0,0.0,0.0
15:17:35,734160.0,0.0,0.0
15:17:35,734244.0,0.0,0.0
15:17:35,734319.0,0.0,0.0
15:17:35,734009.0,0.0,0.0
15:17:35,734383.0,0.0,0.0
15:17:35,734114.0,0.0,0.0
15:17:35,734220.0,0.0,0.0
15:17:35,734318.0,0.0,0.0
15:17:35,733999.0,0.0,0.0
15:17:35,734352.0,0.0,0.0
15:17:35,734077.0,0.0,0.0
15:17:35,734175.0,0.0,0.0
15:17:35,734308.0,0.0,0.0
15:17:35,734028.0,0.0,0.0
15:17:35,734364.0,0.0,0.0
15:17:35,734086.0,0.0,0.0
15:17:35,734164.0,0.0,0.0
15:17:35,734268.0,0.0,0.0
15:17:35,733959.0,0.0,0.0
15:17:35,734302.0,0.0,0.0
15:17:35,733974.0,0.0,0.0
15:17:35,734068.0,0.0,0.0
15:17:35,734136.0,0.0,0.0
15:17:35,733889.0,0.0,0.0
15:17:35,734335.0,0.0,0.0
15:17:35,734218.0,0.0,0.0
15:17:35,734248.0,0.0,0.0
15:17:35,734203.0,0.0,0.0
15:17:35,733860.0,0.0,0.0
15:17:35,734252.0,0.0,0.0
15:17:35,733955.0,0.0,0.0
15:17:35,734101.0,0.0,0.0
15:17:35,734231.0,0.0,0.0
15:17:35,733962.0,0.0,0.0
15:17:35,734328.0,0.0,0.0
15:17:35,734020.0,0.0,0.0
15:17:35,734154.0,0.0,0.0
15:17:35,734271.0,0.0,0.0
15:17:35,733969.0,0.0,0.0
15:17:35,734328.0,0.0,0.0
15:17:35,734005.0,0.0,0.0
15:17:35,734137.0,0.0,0.0
15:17:35,734238.0,0.0,0.0
15:17:35,733953.0,0.0,0.0
15:17:35,734294.0,0.0,0.0
15:17:35,733994.0,0.0,0.0
15:17:35,734076.0,0.0,0.0
15:17:35,734142.0,0.0,0.0
15:17:35,733894.0,0.0,0.0
15:17:35,734264.0,0.0,0.0
15:17:35,733981.0,0.0,0.0
15:17:35,734073.0,0.0,0.0
15:17:35,734118.0,0.0,0.0
15:17:35,733816.0,0.0,0.0
15:17:35,734196.0,0.0,0.0
15:17:35,733906.0,0.0,0.0
15:17:35,734038.0,0.0,0.0
15:17:35,734120.0,0.0,0.0
15:17:35,733836.0,0.0,0.0
15:17:35,734209.0,0.0,0.0
15:17:35,733906.0,0.0,0.0
15:17:35,734028.0,0.0,0.0
15:17:36,734157.0,0.0,0.0
15:17:36,733855.0,0.0,0.0
15:17:36,734198.0,0.0,0.0
15:17:36,733886.0,0.0,0.0
15:17:36,733974.0,0.0,0.0
15:17:36,734051.0,0.0,0.0
15:17:36,733761.0,0.0,0.0
15:17:36,734121.0,0.0,0.0
15:17:36,733758.0,0.0,0.0
15:17:36,733877.0,0.0,0.0
15:17:36,733988.0,0.0,0.0
15:17:36,733688.0,0.0,0.0
15:17:36,734054.0,0.0,0.0
15:17:36,733749.0,0.0,0.0
15:17:36,733875.0,0.0,0.0
15:17:36,733978.0,0.0,0.0
15:17:36,733721.0,0.0,0.0
15:17:36,734158.0,0.0,0.0
15:17:36,733813.0,0.0,0.0
15:17:36,733947.0,0.0,0.0
15:17:36,734063.0,0.0,0.0
15:17:36,733770.0,0.0,0.0
15:17:36,734166.0,0.0,0.0
15:17:36,733821.0,0.0,0.0
15:17:36,733983.0,0.0,0.0
15:17:36,734075.0,0.0,0.0
15:17:36,733769.0,0.0,0.0
15:17:36,734144.0,0.0,0.0
15:17:36,733839.0,0.0,0.0
15:17:36,733969.0,0.0,0.0
15:17:36,734063.0,0.0,0.0
15:17:36,733770.0,0.0,0.0
15:17:36,734150.0,0.0,0.0
15:17:36,733840.0,0.0,0.0
15:17:36,733959.0,0.0,0.0
15:17:36,734077.0,0.0,0.0
15:17:36,733731.0,0.0,0.0
15:17:36,734106.0,0.0,0.0
15:17:36,733789.0,0.0,0.0
15:17:36,733927.0,0.0,0.0
15:17:36,734059.0,0.0,0.0
15:17:36,733786.0,0.0,0.0
15:17:36,734198.0,0.0,0.0
15:17:36,733896.0,0.0,0.0
15:17:36,734073.0,0.0,0.0
15:17:36,734156.0,0.0,0.0
15:17:36,733819.0,0.0,0.0
15:17:36,734188.0,0.0,0.0
15:17:36,733858.0,0.0,0.0
15:17:36,733998.0,0.0,0.0
15:17:36,734112.0,0.0,0.0
15:17:36,733800.0,0.0,0.0
15:17:36,734213.0,0.0,0.0
15:17:36,733876.0,0.0,0.0
15:17:36,734016.0,0.0,0.0
15:17:36,734128.0,0.0,0.0
15:17:36,733820.0,0.0,0.0
15:17:36,734184.0,0.0,0.0
15:17:36,733814.0,0.0,0.0
15:17:36,733910.0,0.0,0.0
15:17:36,734097.0,0.0,0.0
15:17:36,733998.0,0.0,0.0
15:17:36,734476.0,0.0,0.0
15:17:36,734051.0,0.0,0.0
15:17:36,734094.0,0.0,0.0
15:17:36,734136.0,0.0,0.0
15:17:36,733829.0,0.0,0.0
15:17:36,734264.0,0.0,0.0
15:17:36,733979.0,0.0,0.0
15:17:36,734118.0,0.0,0.0
15:17:36,734251.0,0.0,0.0
15:17:36,733949.0,0.0,0.0
15:17:36,734362.0,0.0,0.0
15:17:36,734096.0,0.0,0.0
15:17:36,734301.0,0.0,0.0
15:17:36,734419.0,0.0,0.0
15:17:36,734146.0,0.0,0.0
15:17:36,734579.0,0.0,0.0
15:17:36,734222.0,0.0,0.0
15:17:36,734316.0,0.0,0.0
15:17:36,734405.0,0.0,0.0
15:17:36,734073.0,0.0,0.0
15:17:36,734438.0,0.0,0.0
15:17:36,734133.0,0.0,0.0
15:17:36,734326.0,0.0,0.0
15:17:36,734466.0,0.0,0.0
15:17:36,734156.0,0.0,0.0
15:17:36,734616.0,0.0,0.0
15:17:36,734303.0,0.0,0.0
15:17:36,734487.0,0.0,0.0
15:17:36,734613.0,0.0,0.0
15:17:36,734242.0,0.0,0.0
15:17:36,734636.0,0.0,0.0
15:17:36,734299.0,0.0,0.0
15:17:36,734403.0,0.0,0.0
15:17:36,734565.0,0.0,0.0
15:17:36,734263.0,0.0,0.0
15:17:36,734633.0,0.0,0.0
15:17:36,734285.0,0.0,0.0
15:17:36,734399.0,0.0,0.0
15:17:36,734534.0,0.0,0.0
15:17:36,734228.0,0.0,0.0
15:17:36,734608.0,0.0,0.0
15:17:36,734116.0,0.0,0.0
15:17:36,734169.0,0.0,0.0
15:17:36,734363.0,0.0,0.0
15:17:36,734116.0,0.0,0.0
15:17:36,734689.0,0.0,0.0
15:17:36,734458.0,0.0,0.0
15:17:36,734691.0,0.0,0.0
15:17:36,734909.0,0.0,0.0
15:17:36,734557.0,0.0,0.0
15:17:36,735039.0,0.0,0.0
15:17:36,734634.0,0.0,0.0
15:17:36,734773.0,0.0,0.0
15:17:36,734856.0,0.0,0.0
15:17:36,734516.0,0.0,0.0
15:17:36,734969.0,0.0,0.0
15:17:36,734537.0,0.0,0.0
15:17:36,734691.0,0.0,0.0
15:17:36,734728.0,0.0,0.0
15:17:36,734309.0,0.0,0.0
15:17:36,734681.0,0.0,0.0
15:17:36,734318.0,0.0,0.0
15:17:36,734675.0,0.0,0.0
15:17:37,735063.0,0.0,0.0
15:17:37,734934.0,0.0,0.0
15:17:37,735397.0,0.0,0.0
15:17:37,734709.0,0.0,0.0
15:17:37,734619.0,0.0,0.0
15:17:37,734686.0,0.0,0.0
15:17:37,734430.0,0.0,0.0
15:17:37,734945.0,0.0,0.0
15:17:37,734549.0,0.0,0.0
15:17:37,734734.0,0.0,0.0
15:17:37,734874.0,0.0,0.0
15:17:37,734612.0,0.0,0.0
15:17:37,735266.0,0.0,0.0
15:17:37,735061.0,0.0,0.0
15:17:37,735236.0,0.0,0.0
15:17:37,735198.0,0.0,0.0
15:17:37,734729.0,0.0,0.0
15:17:37,735079.0,0.0,0.0
15:17:37,734516.0,0.0,0.0
15:17:37,734554.0,0.0,0.0
15:17:37,734709.0,0.0,0.0
15:17:37,734321.0,0.0,0.0
15:17:37,734678.0,0.0,0.0
15:17:37,734291.0,0.0,0.0
15:17:37,734396.0,0.0,0.0
15:17:37,734483.0,0.0,0.0
15:17:37,734183.0,0.0,0.0
15:17:37,734569.0,0.0,0.0
15:17:37,734249.0,0.0,0.0
15:17:37,734396.0,0.0,0.0
15:17:37,734467.0,0.0,0.0
15:17:37,734166.0,0.0,0.0
15:17:37,734511.0,0.0,0.0
15:17:37,734253.0,0.0,0.0
15:17:37,734594.0,0.0,0.0
15:17:37,734759.0,0.0,0.0
15:17:37,734406.0,0.0,0.0
15:17:37,734697.0,0.0,0.0
15:17:37,734286.0,0.0,0.0
15:17:37,734392.0,0.0,0.0
15:17:37,734427.0,0.0,0.0
15:17:37,734125.0,0.0,0.0
15:17:37,734534.0,0.0,0.0
15:17:37,734232.0,0.0,0.0
15:17:37,734409.0,0.0,0.0
15:17:37,734503.0,0.0,0.0
15:17:37,734257.0,0.0,0.0
15:17:37,734638.0,0.0,0.0
15:17:37,734353.0,0.0,0.0
15:17:37,734508.0,0.0,0.0
15:17:37,734588.0,0.0,0.0
15:17:37,734318.0,0.0,0.0
15:17:37,734676.0,0.0,0.0
15:17:37,734360.0,0.0,0.0
15:17:37,734490.0,0.0,0.0
15:17:37,734576.0,0.0,0.0
15:17:37,734262.0,0.0,0.0
15:17:37,734624.0,0.0,0.0
15:17:37,734316.0,0.0,0.0
15:17:37,734477.0,0.0,0.0
15:17:37,734528.0,0.0,0.0
15:17:37,734198.0,0.0,0.0
15:17:37,734541.0,0.0,0.0
15:17:37,734217.0,0.0,0.0
15:17:37,734336.0,0.0,0.0
15:17:37,734435.0,0.0,0.0
15:17:37,734174.0,0.0,0.0
15:17:37,734533.0,0.0,0.0
15:17:37,734225.0,0.0,0.0
15:17:37,734344.0,0.0,0.0
15:17:37,734409.0,0.0,0.0
15:17:37,734156.0,0.0,0.0
15:17:37,734514.0,0.0,0.0
15:17:37,734224.0,0.0,0.0
15:17:37,734365.0,0.0,0.0
15:17:37,734421.0,0.0,0.0
15:17:37,734217.0,0.0,0.0
15:17:37,734549.0,0.0,0.0
15:17:37,734243.0,0.0,0.0
15:17:37,734397.0,0.0,0.0
15:17:37,734471.0,0.0,0.0
15:17:37,734198.0,0.0,0.0
15:17:37,734538.0,0.0,0.0
15:17:37,734288.0,0.0,0.0
15:17:37,734443.0,0.0,0.0
15:17:37,734538.0,0.0,0.0
15:17:37,734286.0,0.0,0.0
15:17:37,734594.0,0.0,0.0
15:17:37,734313.0,0.0,0.0
15:17:37,734450.0,0.0,0.0
15:17:37,734484.0,0.0,0.0
15:17:37,734278.0,0.0,0.0
15:17:37,734575.0,0.0,0.0
15:17:37,734295.0,0.0,0.0
15:17:37,734449.0,0.0,0.0
15:17:37,734515.0,0.0,0.0
15:17:37,734250.0,0.0,0.0
15:17:37,734568.0,0.0,0.0
15:17:37,734353.0,0.0,0.0
15:17:37,734529.0,0.0,0.0
15:17:37,734597.0,0.0,0.0
15:17:37,734341.0,0.0,0.0
15:17:37,734655.0,0.0,0.0
15:17:37,734418.0,0.0,0.0
15:17:37,734542.0,0.0,0.0
15:17:37,734589.0,0.0,0.0
15:17:37,734361.0,0.0,0.0
15:17:37,734656.0,0.0,0.0
15:17:37,734396.0,0.0,0.0
15:17:37,734508.0,0.0,0.0
15:17:37,734549.0,0.0,0.0
15:17:37,734356.0,0.0,0.0
15:17:37,734738.0,0.0,0.0
15:17:37,734633.0,0.0,0.0
15:17:37,734822.0,0.0,0.0
15:17:37,734871.0,0.0,0.0
15:17:37,734608.0,0.0,0.0
15:17:37,734869.0,0.0,0.0
15:17:37,734596.0,0.0,0.0
15:17:37,734780.0,0.0,0.0
15:17:37,734924.0,0.0,0.0
15:17:37,734751.0,0.0,0.0
15:17:37,735089.0,0.0,0.0
15:17:37,734754.0,0.0,0.0
15:17:37,734798.0,0.0,0.0
15:17:38,734945.0,0.0,0.0
15:17:38,734863.0,0.0,0.0
15:17:38,735322.0,0.0,0.0
15:17:38,735140.0,0.0,0.0
15:17:38,735251.0,0.0,0.0
15:17:38,735298.0,0.0,0.0
15:17:38,735184.0,0.0,0.0
15:17:38,735580.0,0.0,0.0
15:17:38,735136.0,0.0,0.0
15:17:38,735091.0,0.0,0.0
15:17:38,735001.0,0.0,0.0
15:17:38,734706.0,0.0,0.0
15:17:38,735014.0,0.0,0.0
15:17:38,734723.0,0.0,0.0
15:17:38,734944.0,0.0,0.0
15:17:38,735147.0,0.0,0.0
15:17:38,735149.0,0.0,0.0
15:17:38,735488.0,0.0,0.0
15:17:38,734738.0,0.0,0.0
15:17:38,734245.0,0.0,0.0
15:17:38,734238.0,0.0,0.0
15:17:38,734082.0,0.0,0.0
15:17:38,734253.0,0.0,0.0
15:17:38,733958.0,0.0,0.0
15:17:38,734268.0,0.0,0.0
15:17:38,734511.0,0.0,0.0
15:17:38,734383.0,0.0,0.0
15:17:38,734803.0,0.0,0.0
15:17:38,734629.0,0.0,0.0
15:17:38,734449.0,0.0,0.0
15:17:38,734121.0,0.0,0.0
15:17:38,733600.0,0.0,0.0
15:17:38,733663.0,0.0,0.0
15:17:38,733246.0,0.0,0.0
15:17:38,733259.0,0.0,0.0
15:17:38,733324.0,0.0,0.0
15:17:38,733249.0,0.0,0.0
15:17:38,733633.0,0.0,0.0
15:17:38,733474.0,0.0,0.0
15:17:38,733661.0,0.0,0.0
15:17:38,733845.0,0.0,0.0
15:17:38,733723.0,0.0,0.0
15:17:38,734050.0,0.0,0.0
15:17:38,733830.0,0.0,0.0
15:17:38,733991.0,0.0,0.0
15:17:38,734086.0,0.0,0.0
15:17:38,733888.0,0.0,0.0
15:17:38,734208.0,0.0,0.0
15:17:38,733971.0,0.0,0.0
15:17:38,734134.0,0.0,0.0
15:17:38,734203.0,0.0,0.0
15:17:38,733989.0,0.0,0.0
15:17:38,734269.0,0.0,0.0
15:17:38,733946.0,0.0,0.0
15:17:38,734013.0,0.0,0.0
15:17:38,733980.0,0.0,0.0
15:17:38,733706.0,0.0,0.0
15:17:38,733999.0,0.0,0.0
15:17:38,733699.0,0.0,0.0
15:17:38,733743.0,0.0,0.0
15:17:38,733756.0,0.0,0.0
15:17:38,733573.0,0.0,0.0
15:17:38,733822.0,0.0,0.0
15:17:38,733560.0,0.0,0.0
15:17:38,733673.0,0.0,0.0
15:17:38,733664.0,0.0,0.0
15:17:38,733436.0,0.0,0.0
15:17:38,733753.0,0.0,0.0
15:17:38,733448.0,0.0,0.0
15:17:38,733536.0,0.0,0.0
15:17:38,733540.0,0.0,0.0
15:17:38,733290.0,0.0,0.0
15:17:38,733583.0,0.0,0.0
15:17:38,733251.0,0.0,0.0
15:17:38,733359.0,0.0,0.0
15:17:38,733403.0,0.0,0.0
15:17:38,733158.0,0.0,0.0
15:17:38,733433.0,0.0,0.0
15:17:38,733138.0,0.0,0.0
15:17:38,733241.0,0.0,0.0
15:17:38,733241.0,0.0,0.0
15:17:38,732993.0,0.0,0.0
15:17:38,733248.0,0.0,0.0
15:17:38,732826.0,0.0,0.0
15:17:38,732877.0,0.0,0.0
15:17:38,732956.0,0.0,0.0
15:17:38,732776.0,0.0,0.0
15:17:38,733129.0,0.0,0.0
15:17:38,732891.0,0.0,0.0
15:17:38,733051.0,0.0,0.0
15:17:38,733158.0,0.0,0.0
15:17:38,732989.0,0.0,0.0
15:17:38,733433.0,0.0,0.0
15:17:38,733316.0,0.0,0.0
15:17:38,733618.0,0.0,0.0
15:17:38,733861.0,0.0,0.0
15:17:38,733806.0,0.0,0.0
15:17:38,734313.0,0.0,0.0
15:17:38,734159.0,0.0,0.0
15:17:38,734270.0,0.0,0.0
15:17:38,734199.0,0.0,0.0
15:17:38,733849.0,0.0,0.0
15:17:38,734448.0,0.0,0.0
15:17:38,734258.0,0.0,0.0
15:17:38,733670.0,0.0,0.0
15:17:38,733089.0,0.0,0.0
15:17:38,732871.0,0.0,0.0
15:17:38,733604.0,0.0,0.0
15:17:38,733874.0,0.0,0.0
15:17:38,734439.0,0.0,0.0
15:17:38,734697.0,0.0,0.0
15:17:38,734401.0,0.0,0.0
15:17:38,734589.0,0.0,0.0
15:17:38,734178.0,0.0,0.0
15:17:38,734264.0,0.0,0.0
15:17:38,734234.0,0.0,0.0
15:17:38,733925.0,0.0,0.0
15:17:38,734211.0,0.0,0.0
15:17:38,733878.0,0.0,0.0
15:17:38,733984.0,0.0,0.0
15:17:38,734001.0,0.0,0.0
15:17:38,733659.0,0.0,0.0
15:17:38,733921.0,0.0,0.0
15:17:38,733527.0,0.0,0.0
15:17:38,733628.0,0.0,0.0
15:17:39,733659.0,0.0,0.0
15:17:39,733421.0,0.0,0.0
15:17:39,733818.0,0.0,0.0
15:17:39,733609.0,0.0,0.0
15:17:39,733919.0,0.0,0.0
15:17:39,734296.0,0.0,0.0
15:17:39,734286.0,0.0,0.0
15:17:39,734422.0,0.0,0.0
15:17:39,733844.0,0.0,0.0
15:17:39,733816.0,0.0,0.0
15:17:39,733709.0,0.0,0.0
15:17:39,733199.0,0.0,0.0
15:17:39,733190.0,0.0,0.0
15:17:39,732752.0,0.0,0.0
15:17:39,732980.0,0.0,0.0
15:17:39,733159.0,0.0,0.0
15:17:39,732825.0,0.0,0.0
15:17:39,732983.0,0.0,0.0
15:17:39,732676.0,0.0,0.0
15:17:39,732756.0,0.0,0.0
15:17:39,732813.0,0.0,0.0
15:17:39,732628.0,0.0,0.0
15:17:39,732989.0,0.0,0.0
15:17:39,732806.0,0.0,0.0
15:17:39,732951.0,0.0,0.0
15:17:39,733028.0,0.0,0.0
15:17:39,732778.0,0.0,0.0
15:17:39,733018.0,0.0,0.0
15:17:39,732681.0,0.0,0.0
15:17:39,732878.0,0.0,0.0
15:17:39,732936.0,0.0,0.0
15:17:39,732719.0,0.0,0.0
15:17:39,732975.0,0.0,0.0
15:17:39,732644.0,0.0,0.0
15:17:39,732736.0,0.0,0.0
15:17:39,732755.0,0.0,0.0
15:17:39,732501.0,0.0,0.0
15:17:39,732825.0,0.0,0.0
15:17:39,732559.0,0.0,0.0
15:17:39,732751.0,0.0,0.0
15:17:39,732817.0,0.0,0.0
15:17:39,732599.0,0.0,0.0
15:17:39,732841.0,0.0,0.0
15:17:39,732532.0,0.0,0.0
15:17:39,732713.0,0.0,0.0
15:17:39,732749.0,0.0,0.0
15:17:39,732585.0,0.0,0.0
15:17:39,732826.0,0.0,0.0
15:17:39,732581.0,0.0,0.0
15:17:39,732746.0,0.0,0.0
15:17:39,732748.0,0.0,0.0
15:17:39,732603.0,0.0,0.0
15:17:39,732882.0,0.0,0.0
15:17:39,732634.0,0.0,0.0
15:17:39,732791.0,0.0,0.0
15:17:39,732784.0,0.0,0.0
15:17:39,732629.0,0.0,0.0
15:17:39,732893.0,0.0,0.0
15:17:39,732653.0,0.0,0.0
15:17:39,732773.0,0.0,0.0
15:17:39,732771.0,0.0,0.0
15:17:39,732579.0,0.0,0.0
15:17:39,732880.0,0.0,0.0
15:17:39,732650.0,0.0,0.0
15:17:39,732807.0,0.0,0.0
15:17:39,732817.0,0.0,0.0
15:17:39,732609.0,0.0,0.0
15:17:39,732888.0,0.0,0.0
15:17:39,732678.0,0.0,0.0
15:17:39,732806.0,0.0,0.0
15:17:39,732824.0,0.0,0.0
15:17:39,732606.0,0.0,0.0
15:17:39,732854.0,0.0,0.0
15:17:39,732586.0,0.0,0.0
15:17:39,732663.0,0.0,0.0
15:17:39,732824.0,0.0,0.0
15:17:39,732836.0,0.0,0.0
15:17:39,733161.0,0.0,0.0
15:17:39,732832.0,0.0,0.0
15:17:39,732864.0,0.0,0.0
15:17:39,732907.0,0.0,0.0
15:17:39,732771.0,0.0,0.0
15:17:39,733080.0,0.0,0.0
15:17:39,732853.0,0.0,0.0
15:17:39,732968.0,0.0,0.0
15:17:39,733048.0,0.0,0.0
15:17:39,732851.0,0.0,0.0
15:17:39,733156.0,0.0,0.0
15:17:39,732938.0,0.0,0.0
15:17:39,733048.0,0.0,0.0
15:17:39,733098.0,0.0,0.0
15:17:39,732899.0,0.0,0.0
15:17:39,733145.0,0.0,0.0
15:17:39,732914.0,0.0,0.0
15:17:39,733035.0,0.0,0.0
15:17:39,733084.0,0.0,0.0
15:17:39,732869.0,0.0,0.0
15:17:39,733099.0,0.0,0.0
15:17:39,732871.0,0.0,0.0
15:17:39,732953.0,0.0,0.0
15:17:39,732954.0,0.0,0.0
15:17:39,732778.0,0.0,0.0
15:17:39,732988.0,0.0,0.0
15:17:39,732765.0,0.0,0.0
15:17:39,732894.0,0.0,0.0
15:17:39,732908.0,0.0,0.0
15:17:39,732733.0,0.0,0.0
15:17:39,733006.0,0.0,0.0
15:17:39,732781.0,0.0,0.0
15:17:39,732886.0,0.0,0.0
15:17:39,732911.0,0.0,0.0
15:17:39,732697.0,0.0,0.0
15:17:39,732928.0,0.0,0.0
15:17:39,732663.0,0.0,0.0
15:17:39,732648.0,0.0,0.0
15:17:39,732480.0,0.0,0.0
15:17:39,732190.0,0.0,0.0
15:17:39,732414.0,0.0,0.0
15:17:39,732154.0,0.0,0.0
15:17:39,732266.0,0.0,0.0
15:17:39,732397.0,0.0,0.0
15:17:39,732244.0,0.0,0.0
15:17:39,732443.0,0.0,0.0
15:17:39,732216.0,0.0,0.0
15:17:39,732674.0,0.0,0.0
15:17:40,733233.0,0.0,0.0
15:17:40,733258.0,0.0,0.0
15:17:40,733451.0,0.0,0.0
15:17:40,733274.0,0.0,0.0
15:17:40,733649.0,0.0,0.0
15:17:40,733951.0,0.0,0.0
15:17:40,733873.0,0.0,0.0
15:17:40,734069.0,0.0,0.0
15:17:40,733679.0,0.0,0.0
15:17:40,733582.0,0.0,0.0
15:17:40,733395.0,0.0,0.0
15:17:40,732972.0,0.0,0.0
15:17:40,733171.0,0.0,0.0
15:17:40,732829.0,0.0,0.0
15:17:40,732944.0,0.0,0.0
15:17:40,733009.0,0.0,0.0
15:17:40,732791.0,0.0,0.0
15:17:40,733043.0,0.0,0.0
15:17:40,732746.0,0.0,0.0
15:17:40,732858.0,0.0,0.0
15:17:40,732903.0,0.0,0.0
15:17:40,732611.0,0.0,0.0
15:17:40,732775.0,0.0,0.0
15:17:40,732493.0,0.0,0.0
15:17:40,732592.0,0.0,0.0
15:17:40,732602.0,0.0,0.0
15:17:40,732349.0,0.0,0.0
15:17:40,732513.0,0.0,0.0
15:17:40,732158.0,0.0,0.0
15:17:40,732203.0,0.0,0.0
15:17:40,732189.0,0.0,0.0
15:17:40,731942.0,0.0,0.0
15:17:40,732221.0,0.0,0.0
15:17:40,732002.0,0.0,0.0
15:17:40,731838.0,0.0,0.0
15:17:40,731468.0,0.0,0.0
15:17:40,731363.0,0.0,0.0
15:17:40,731741.0,0.0,0.0
15:17:40,731434.0,0.0,0.0
15:17:40,731439.0,0.0,0.0
15:17:40,731425.0,0.0,0.0
15:17:40,731352.0,0.0,0.0
15:17:40,731744.0,0.0,0.0
15:17:40,731549.0,0.0,0.0
15:17:40,731635.0,0.0,0.0
15:17:40,731600.0,0.0,0.0
15:17:40,731273.0,0.0,0.0
15:17:40,731517.0,0.0,0.0
15:17:40,731438.0,0.0,0.0
15:17:40,731893.0,0.0,0.0
15:17:40,732062.0,0.0,0.0
15:17:40,731755.0,0.0,0.0
15:17:40,731799.0,0.0,0.0
15:17:40,731053.0,0.0,0.0
15:17:40,730855.0,0.0,0.0
15:17:40,730789.0,0.0,0.0
15:17:40,730590.0,0.0,0.0
15:17:40,730817.0,0.0,0.0
15:17:40,730542.0,0.0,0.0
15:17:40,730579.0,0.0,0.0
15:17:40,730599.0,0.0,0.0
15:17:40,730386.0,0.0,0.0
15:17:40,730653.0,0.0,0.0
15:17:40,730382.0,0.0,0.0
15:17:40,730532.0,0.0,0.0
15:17:40,730680.0,0.0,0.0
15:17:40,730615.0,0.0,0.0
15:17:40,730987.0,0.0,0.0
15:17:40,730823.0,0.0,0.0
15:17:40,731087.0,0.0,0.0
15:17:40,731257.0,0.0,0.0
15:17:40,731185.0,0.0,0.0
15:17:40,731681.0,0.0,0.0
15:17:40,731586.0,0.0,0.0
15:17:40,731885.0,0.0,0.0
15:17:40,732090.0,0.0,0.0
15:17:40,731994.0,0.0,0.0
15:17:40,732441.0,0.0,0.0
15:17:40,732276.0,0.0,0.0
15:17:40,732502.0,0.0,0.0
15:17:40,732660.0,0.0,0.0
15:17:40,732520.0,0.0,0.0
15:17:40,732772.0,0.0,0.0
15:17:40,732376.0,0.0,0.0
15:17:40,732353.0,0.0,0.0
15:17:40,732232.0,0.0,0.0
15:17:40,731805.0,0.0,0.0
15:17:40,731951.0,0.0,0.0
15:17:40,731561.0,0.0,0.0
15:17:40,731582.0,0.0,0.0
15:17:40,731511.0,0.0,0.0
15:17:40,731170.0,0.0,0.0
15:17:40,731465.0,0.0,0.0
15:17:40,731162.0,0.0,0.0
15:17:40,731336.0,0.0,0.0
15:17:40,731502.0,0.0,0.0
15:17:40,731371.0,0.0,0.0
15:17:40,731878.0,0.0,0.0
15:17:40,731774.0,0.0,0.0
15:17:40,732073.0,0.0,0.0
15:17:40,732265.0,0.0,0.0
15:17:40,732184.0,0.0,0.0
15:17:40,732594.0,0.0,0.0
15:17:40,732348.0,0.0,0.0
15:17:40,732548.0,0.0,0.0
15:17:40,732654.0,0.0,0.0
15:17:40,732477.0,0.0,0.0
15:17:40,732806.0,0.0,0.0
15:17:40,732566.0,0.0,0.0
15:17:40,732716.0,0.0,0.0
15:17:40,732732.0,0.0,0.0
15:17:40,732512.0,0.0,0.0
15:17:40,732818.0,0.0,0.0
15:17:40,732528.0,0.0,0.0
15:17:40,732637.0,0.0,0.0
15:17:40,732649.0,0.0,0.0
15:17:40,732382.0,0.0,0.0
15:17:40,732719.0,0.0,0.0
15:17:40,732394.0,0.0,0.0
15:17:40,732502.0,0.0,0.0
15:17:40,732528.0,0.0,0.0
15:17:40,732283.0,0.0,0.0
15:17:40,732624.0,0.0,0.0
15:17:40,732336.0,0.0,0.0
15:17:40,732458.0,0.0,0.0
15:17:41,732564.0,0.0,0.0
15:17:41,732301.0,0.0,0.0
15:17:41,732676.0,0.0,0.0
15:17:41,732449.0,0.0,0.0
15:17:41,732645.0,0.0,0.0
15:17:41,732725.0,0.0,0.0
15:17:41,732504.0,0.0,0.0
15:17:41,732846.0,0.0,0.0
15:17:41,732508.0,0.0,0.0
15:17:41,732642.0,0.0,0.0
15:17:41,732652.0,0.0,0.0
15:17:41,732393.0,0.0,0.0
15:17:41,732643.0,0.0,0.0
15:17:41,732313.0,0.0,0.0
15:17:41,732439.0,0.0,0.0
15:17:41,732429.0,0.0,0.0
15:17:41,732150.0,0.0,0.0
15:17:41,732431.0,0.0,0.0
15:17:41,732069.0,0.0,0.0
15:17:41,732152.0,0.0,0.0
15:17:41,732133.0,0.0,0.0
15:17:41,731949.0,0.0,0.0
15:17:41,732468.0,0.0,0.0
15:17:41,732168.0,0.0,0.0
15:17:41,732195.0,0.0,0.0
15:17:41,732148.0,0.0,0.0
15:17:41,731893.0,0.0,0.0
15:17:41,732255.0,0.0,0.0
15:17:41,731965.0,0.0,0.0
15:17:41,732203.0,0.0,0.0
15:17:41,732290.0,0.0,0.0
15:17:41,732056.0,0.0,0.0
15:17:41,732386.0,0.0,0.0
15:17:41,732061.0,0.0,0.0
15:17:41,732240.0,0.0,0.0
15:17:41,732326.0,0.0,0.0
15:17:41,732076.0,0.0,0.0
15:17:41,732348.0,0.0,0.0
15:17:41,731997.0,0.0,0.0
15:17:41,732165.0,0.0,0.0
15:17:41,732271.0,0.0,0.0
15:17:41,731992.0,0.0,0.0
15:17:41,732249.0,0.0,0.0
15:17:41,731739.0,0.0,0.0
15:17:41,731800.0,0.0,0.0
15:17:41,731916.0,0.0,0.0
15:17:41,731752.0,0.0,0.0
15:17:41,732215.0,0.0,0.0
15:17:41,731963.0,0.0,0.0
15:17:41,732128.0,0.0,0.0
15:17:41,732248.0,0.0,0.0
15:17:41,731964.0,0.0,0.0
15:17:41,732246.0,0.0,0.0
15:17:41,731864.0,0.0,0.0
15:17:41,731988.0,0.0,0.0
15:17:41,732145.0,0.0,0.0
15:17:41,731937.0,0.0,0.0
15:17:41,732336.0,0.0,0.0
15:17:41,732083.0,0.0,0.0
15:17:41,732240.0,0.0,0.0
15:17:41,732302.0,0.0,0.0
15:17:41,732044.0,0.0,0.0
15:17:41,732421.0,0.0,0.0
15:17:41,732114.0,0.0,0.0
15:17:41,732274.0,0.0,0.0
15:17:41,732389.0,0.0,0.0
15:17:41,732192.0,0.0,0.0
15:17:41,732552.0,0.0,0.0
15:17:41,732269.0,0.0,0.0
15:17:41,732479.0,0.0,0.0
15:17:41,732718.0,0.0,0.0
15:17:41,732841.0,0.0,0.0
15:17:41,733424.0,0.0,0.0
15:17:41,732329.0,0.0,0.0
15:17:41,731840.0,0.0,0.0
15:17:41,731816.0,0.0,0.0
15:17:41,731157.0,0.0,0.0
15:17:41,731286.0,0.0,0.0
15:17:41,731131.0,0.0,0.0
15:17:41,731378.0,0.0,0.0
15:17:41,731604.0,0.0,0.0
15:17:41,731549.0,0.0,0.0
15:17:41,731981.0,0.0,0.0
15:17:41,731806.0,0.0,0.0
15:17:41,732303.0,0.0,0.0
15:17:41,732516.0,0.0,0.0
15:17:41,732058.0,0.0,0.0
15:17:41,732089.0,0.0,0.0
15:17:41,731711.0,0.0,0.0
15:17:41,731868.0,0.0,0.0
15:17:41,731924.0,0.0,0.0
15:17:41,731658.0,0.0,0.0
15:17:41,731905.0,0.0,0.0
15:17:41,731523.0,0.0,0.0
15:17:41,731671.0,0.0,0.0
15:17:41,731671.0,0.0,0.0
15:17:41,731450.0,0.0,0.0
15:17:41,731745.0,0.0,0.0
15:17:41,731483.0,0.0,0.0
15:17:41,731609.0,0.0,0.0
15:17:41,731668.0,0.0,0.0
15:17:41,731484.0,0.0,0.0
15:17:41,731856.0,0.0,0.0
15:17:41,731614.0,0.0,0.0
15:17:41,731823.0,0.0,0.0
15:17:41,731846.0,0.0,0.0
15:17:41,731578.0,0.0,0.0
15:17:41,731899.0,0.0,0.0
15:17:41,731613.0,0.0,0.0
15:17:41,731705.0,0.0,0.0
15:17:41,731719.0,0.0,0.0
15:17:41,731557.0,0.0,0.0
15:17:41,731858.0,0.0,0.0
15:17:41,731563.0,0.0,0.0
15:17:41,731663.0,0.0,0.0
15:17:41,731554.0,0.0,0.0
15:17:41,731269.0,0.0,0.0
15:17:41,731619.0,0.0,0.0
15:17:41,731463.0,0.0,0.0
15:17:41,731756.0,0.0,0.0
15:17:41,731780.0,0.0,0.0
15:17:41,731478.0,0.0,0.0
15:17:41,731693.0,0.0,0.0
15:17:41,731443.0,0.0,0.0
15:17:41,731651.0,0.0,0.0
15:17:42,731701.0,0.0,0.0
15:17:42,731429.0,0.0,0.0
15:17:42,731483.0,0.0,0.0
15:17:42,731023.0,0.0,0.0
15:17:42,731307.0,0.0,0.0
15:17:42,731574.0,0.0,0.0
15:17:42,731499.0,0.0,0.0
15:17:42,731918.0,0.0,0.0
15:17:42,731663.0,0.0,0.0
15:17:42,731829.0,0.0,0.0
15:17:42,731800.0,0.0,0.0
15:17:42,731512.0,0.0,0.0
15:17:42,731783.0,0.0,0.0
15:17:42,731473.0,0.0,0.0
15:17:42,731500.0,0.0,0.0
15:17:42,731518.0,0.0,0.0
15:17:42,731268.0,0.0,0.0
15:17:42,731565.0,0.0,0.0
15:17:42,731664.0,0.0,0.0
15:17:42,732245.0,0.0,0.0
15:17:42,732554.0,0.0,0.0
15:17:42,732535.0,0.0,0.0
15:17:42,732903.0,0.0,0.0
15:17:42,732550.0,0.0,0.0
15:17:42,732579.0,0.0,0.0
15:17:42,732516.0,0.0,0.0
15:17:42,732101.0,0.0,0.0
15:17:42,732278.0,0.0,0.0
15:17:42,731896.0,0.0,0.0
15:17:42,732066.0,0.0,0.0
15:17:42,732063.0,0.0,0.0
15:17:42,731707.0,0.0,0.0
15:17:42,731945.0,0.0,0.0
15:17:42,731577.0,0.0,0.0
15:17:42,731691.0,0.0,0.0
15:17:42,731644.0,0.0,0.0
15:17:42,731394.0,0.0,0.0
15:17:42,731674.0,0.0,0.0
15:17:42,731344.0,0.0,0.0
15:17:42,731516.0,0.0,0.0
15:17:42,731517.0,0.0,0.0
15:17:42,731302.0,0.0,0.0
15:17:42,731638.0,0.0,0.0
15:17:42,731332.0,0.0,0.0
15:17:42,731473.0,0.0,0.0
15:17:42,731206.0,0.0,0.0
15:17:42,731068.0,0.0,0.0
15:17:42,731663.0,0.0,0.0
15:17:42,731320.0,0.0,0.0
15:17:42,731298.0,0.0,0.0
15:17:42,731394.0,0.0,0.0
15:17:42,731334.0,0.0,0.0
15:17:42,731589.0,0.0,0.0
15:17:42,731249.0,0.0,0.0
15:17:42,731255.0,0.0,0.0
15:17:42,731133.0,0.0,0.0
15:17:42,730953.0,0.0,0.0
15:17:42,731413.0,0.0,0.0
15:17:42,731260.0,0.0,0.0
15:17:42,731424.0,0.0,0.0
15:17:42,731433.0,0.0,0.0
15:17:42,731321.0,0.0,0.0
15:17:42,731817.0,0.0,0.0
15:17:42,731669.0,0.0,0.0
15:17:42,731924.0,0.0,0.0
15:17:42,732006.0,0.0,0.0
15:17:42,731881.0,0.0,0.0
15:17:42,732253.0,0.0,0.0
15:17:42,732041.0,0.0,0.0
15:17:42,732339.0,0.0,0.0
15:17:42,732433.0,0.0,0.0
15:17:42,732294.0,0.0,0.0
15:17:42,732692.0,0.0,0.0
15:17:42,732409.0,0.0,0.0
15:17:42,732588.0,0.0,0.0
15:17:42,732619.0,0.0,0.0
15:17:42,732400.0,0.0,0.0
15:17:42,732733.0,0.0,0.0
15:17:42,732415.0,0.0,0.0
15:17:42,732556.0,0.0,0.0
15:17:42,732606.0,0.0,0.0
15:17:42,732391.0,0.0,0.0
15:17:42,732748.0,0.0,0.0
15:17:42,732446.0,0.0,0.0
15:17:42,732654.0,0.0,0.0
15:17:42,732701.0,0.0,0.0
15:17:42,732525.0,0.0,0.0
15:17:42,732879.0,0.0,0.0
15:17:42,732512.0,0.0,0.0
15:17:42,732798.0,0.0,0.0
15:17:42,733033.0,0.0,0.0
15:17:42,732871.0,0.0,0.0
15:17:42,733106.0,0.0,0.0
15:17:42,732633.0,0.0,0.0
15:17:42,732766.0,0.0,0.0
15:17:42,732723.0,0.0,0.0
15:17:42,732488.0,0.0,0.0
15:17:42,732838.0,0.0,0.0
15:17:42,732474.0,0.0,0.0
15:17:42,732668.0,0.0,0.0
15:17:42,732696.0,0.0,0.0
15:17:42,732459.0,0.0,0.0
15:17:42,732807.0,0.0,0.0
15:17:42,732469.0,0.0,0.0
15:17:42,732662.0,0.0,0.0
15:17:42,732706.0,0.0,0.0
15:17:42,732514.0,0.0,0.0
15:17:42,732899.0,0.0,0.0
15:17:42,732579.0,0.0,0.0
15:17:42,732844.0,0.0,0.0
15:17:42,732944.0,0.0,0.0
15:17:42,732762.0,0.0,0.0
15:17:42,733074.0,0.0,0.0
15:17:42,732610.0,0.0,0.0
15:17:42,732761.0,0.0,0.0
15:17:42,732849.0,0.0,0.0
15:17:42,732759.0,0.0,0.0
15:17:42,733271.0,0.0,0.0
15:17:42,732989.0,0.0,0.0
15:17:42,733173.0,0.0,0.0
15:17:42,733195.0,0.0,0.0
15:17:42,732931.0,0.0,0.0
15:17:42,733274.0,0.0,0.0
15:17:42,732903.0,0.0,0.0
15:17:42,733030.0,0.0,0.0
15:17:43,733006.0,0.0,0.0
15:17:43,732781.0,0.0,0.0
15:17:43,733198.0,0.0,0.0
15:17:43,732867.0,0.0,0.0
15:17:43,733114.0,0.0,0.0
15:17:43,733083.0,0.0,0.0
15:17:43,732718.0,0.0,0.0
15:17:43,732941.0,0.0,0.0
15:17:43,732478.0,0.0,0.0
15:17:43,732779.0,0.0,0.0
15:17:43,732873.0,0.0,0.0
15:17:43,732760.0,0.0,0.0
15:17:43,733184.0,0.0,0.0
15:17:43,732837.0,0.0,0.0
15:17:43,733108.0,0.0,0.0
15:17:43,733085.0,0.0,0.0
15:17:43,732851.0,0.0,0.0
15:17:43,733199.0,0.0,0.0
15:17:43,732793.0,0.0,0.0
15:17:43,733021.0,0.0,0.0
15:17:43,732992.0,0.0,0.0
15:17:43,732741.0,0.0,0.0
15:17:43,733128.0,0.0,0.0
15:17:43,732796.0,0.0,0.0
15:17:43,732008.0,0.0,0.0
15:17:43,731088.0,0.0,0.0
15:17:43,731074.0,0.0,0.0
15:17:43,731686.0,0.0,0.0
15:17:43,731762.0,0.0,0.0
15:17:43,732396.0,0.0,0.0
15:17:43,732570.0,0.0,0.0
15:17:43,732448.0,0.0,0.0
15:17:43,732926.0,0.0,0.0
15:17:43,732574.0,0.0,0.0
15:17:43,732740.0,0.0,0.0
15:17:43,732761.0,0.0,0.0
15:17:43,732593.0,0.0,0.0
15:17:43,733284.0,0.0,0.0
15:17:43,733229.0,0.0,0.0
15:17:43,733017.0,0.0,0.0
15:17:43,732587.0,0.0,0.0
15:17:43,732236.0,0.0,0.0
15:17:43,732538.0,0.0,0.0
15:17:43,732137.0,0.0,0.0
15:17:43,732303.0,0.0,0.0
15:17:43,732243.0,0.0,0.0
15:17:43,731959.0,0.0,0.0
15:17:43,732322.0,0.0,0.0
15:17:43,732006.0,0.0,0.0
15:17:43,732256.0,0.0,0.0
15:17:43,732263.0,0.0,0.0
15:17:43,732051.0,0.0,0.0
15:17:43,732375.0,0.0,0.0
15:17:43,732029.0,0.0,0.0
15:17:43,732320.0,0.0,0.0
15:17:43,732369.0,0.0,0.0
15:17:43,732168.0,0.0,0.0
15:17:43,732524.0,0.0,0.0
15:17:43,732189.0,0.0,0.0
15:17:43,732550.0,0.0,0.0
15:17:43,732738.0,0.0,0.0
15:17:43,732625.0,0.0,0.0
15:17:43,732887.0,0.0,0.0
15:17:43,732423.0,0.0,0.0
15:17:43,732594.0,0.0,0.0
15:17:43,732599.0,0.0,0.0
15:17:43,732378.0,0.0,0.0
15:17:43,732730.0,0.0,0.0
15:17:43,732382.0,0.0,0.0
15:17:43,732606.0,0.0,0.0
15:17:43,732623.0,0.0,0.0
15:17:43,732429.0,0.0,0.0
15:17:43,732794.0,0.0,0.0
15:17:43,732510.0,0.0,0.0
15:17:43,732746.0,0.0,0.0
15:17:43,732721.0,0.0,0.0
15:17:43,732530.0,0.0,0.0
15:17:43,732878.0,0.0,0.0
15:17:43,732449.0,0.0,0.0
15:17:43,732704.0,0.0,0.0
15:17:43,732685.0,0.0,0.0
15:17:43,732394.0,0.0,0.0
15:17:43,732696.0,0.0,0.0
15:17:43,732346.0,0.0,0.0
15:17:43,732539.0,0.0,0.0
15:17:43,732557.0,0.0,0.0
15:17:43,732382.0,0.0,0.0
15:17:43,732695.0,0.0,0.0
15:17:43,732268.0,0.0,0.0
15:17:43,732343.0,0.0,0.0
15:17:43,732243.0,0.0,0.0
15:17:43,732081.0,0.0,0.0
15:17:43,732515.0,0.0,0.0
15:17:43,732124.0,0.0,0.0
15:17:43,732434.0,0.0,0.0
15:17:43,732488.0,0.0,0.0
15:17:43,732281.0,0.0,0.0
15:17:43,732625.0,0.0,0.0
15:17:43,732244.0,0.0,0.0
15:17:43,732386.0,0.0,0.0
15:17:43,732289.0,0.0,0.0
15:17:43,732020.0,0.0,0.0
15:17:43,732362.0,0.0,0.0
15:17:43,732003.0,0.0,0.0
15:17:43,732286.0,0.0,0.0
15:17:43,732234.0,0.0,0.0
15:17:43,731971.0,0.0,0.0
15:17:43,732265.0,0.0,0.0
15:17:43,731889.0,0.0,0.0
15:17:43,732222.0,0.0,0.0
15:17:43,732253.0,0.0,0.0
15:17:43,731968.0,0.0,0.0
15:17:43,732121.0,0.0,0.0
15:17:43,731563.0,0.0,0.0
15:17:43,731619.0,0.0,0.0
15:17:43,731679.0,0.0,0.0
15:17:43,731614.0,0.0,0.0
15:17:43,731954.0,0.0,0.0
15:17:43,731738.0,0.0,0.0
15:17:43,732029.0,0.0,0.0
15:17:43,731944.0,0.0,0.0
15:17:43,731624.0,0.0,0.0
15:17:43,731814.0,0.0,0.0
15:17:43,731526.0,0.0,0.0
15:17:43,731851.0,0.0,0.0
15:17:44,731928.0,0.0,0.0
15:17:44,731863.0,0.0,0.0
15:17:44,732524.0,0.0,0.0
15:17:44,732133.0,0.0,0.0
15:17:44,732018.0,0.0,0.0
15:17:44,731975.0,0.0,0.0
15:17:44,732040.0,0.0,0.0
15:17:44,732818.0,0.0,0.0
15:17:44,732861.0,0.0,0.0
15:17:44,733151.0,0.0,0.0
15:17:44,732795.0,0.0,0.0
15:17:44,732274.0,0.0,0.0
15:17:44,732723.0,0.0,0.0
15:17:44,732276.0,0.0,0.0
15:17:44,732303.0,0.0,0.0
15:17:44,732216.0,0.0,0.0
15:17:44,731860.0,0.0,0.0
15:17:44,732059.0,0.0,0.0
15:17:44,731658.0,0.0,0.0
15:17:44,731831.0,0.0,0.0
15:17:44,731696.0,0.0,0.0
15:17:44,731372.0,0.0,0.0
15:17:44,731601.0,0.0,0.0
15:17:44,731088.0,0.0,0.0
15:17:44,731325.0,0.0,0.0
15:17:44,731279.0,0.0,0.0
15:17:44,731308.0,0.0,0.0
15:17:44,731847.0,0.0,0.0
15:17:44,731572.0,0.0,0.0
15:17:44,731877.0,0.0,0.0
15:17:44,731938.0,0.0,0.0
15:17:44,731636.0,0.0,0.0
15:17:44,731849.0,0.0,0.0
15:17:44,731718.0,0.0,0.0
15:17:44,731990.0,0.0,0.0
15:17:44,731571.0,0.0,0.0
15:17:44,731144.0,0.0,0.0
15:17:44,731648.0,0.0,0.0
15:17:44,731208.0,0.0,0.0
15:17:44,731098.0,0.0,0.0
15:17:44,731054.0,0.0,0.0
15:17:44,731137.0,0.0,0.0
15:17:44,731794.0,0.0,0.0
15:17:44,731749.0,0.0,0.0
15:17:44,732064.0,0.0,0.0
15:17:44,731991.0,0.0,0.0
15:17:44,731680.0,0.0,0.0
15:17:44,731894.0,0.0,0.0
15:17:44,731566.0,0.0,0.0
15:17:44,731860.0,0.0,0.0
15:17:44,731866.0,0.0,0.0
15:17:44,731571.0,0.0,0.0
15:17:44,731751.0,0.0,0.0
15:17:44,731406.0,0.0,0.0
15:17:44,731626.0,0.0,0.0
15:17:44,731638.0,0.0,0.0
15:17:44,731494.0,0.0,0.0
15:17:44,731881.0,0.0,0.0
15:17:44,731619.0,0.0,0.0
15:17:44,731949.0,0.0,0.0
15:17:44,731964.0,0.0,0.0
15:17:44,731832.0,0.0,0.0
15:17:44,732201.0,0.0,0.0
15:17:44,731830.0,0.0,0.0
15:17:44,732067.0,0.0,0.0
15:17:44,732128.0,0.0,0.0
15:17:44,731971.0,0.0,0.0
15:17:44,732355.0,0.0,0.0
15:17:44,731979.0,0.0,0.0
15:17:44,732216.0,0.0,0.0
15:17:44,732201.0,0.0,0.0
15:17:44,731988.0,0.0,0.0
15:17:44,732294.0,0.0,0.0
15:17:44,731937.0,0.0,0.0
15:17:44,732182.0,0.0,0.0
15:17:44,732131.0,0.0,0.0
15:17:44,731856.0,0.0,0.0
15:17:44,732233.0,0.0,0.0
15:17:44,731823.0,0.0,0.0
15:17:44,732007.0,0.0,0.0
15:17:44,731994.0,0.0,0.0
15:17:44,731824.0,0.0,0.0
15:17:44,732156.0,0.0,0.0
15:17:44,731809.0,0.0,0.0
15:17:44,732026.0,0.0,0.0
15:17:44,732126.0,0.0,0.0
15:17:44,732062.0,0.0,0.0
15:17:44,732254.0,0.0,0.0
15:17:44,731779.0,0.0,0.0
15:17:44,731934.0,0.0,0.0
15:17:44,731854.0,0.0,0.0
15:17:44,731692.0,0.0,0.0
15:17:44,732019.0,0.0,0.0
15:17:44,731654.0,0.0,0.0
15:17:44,731931.0,0.0,0.0
15:17:44,732075.0,0.0,0.0
15:17:44,731976.0,0.0,0.0
15:17:44,732304.0,0.0,0.0
15:17:44,731968.0,0.0,0.0
15:17:44,732331.0,0.0,0.0
15:17:44,732363.0,0.0,0.0
15:17:44,731956.0,0.0,0.0
15:17:44,732110.0,0.0,0.0
15:17:44,731764.0,0.0,0.0
15:17:44,732221.0,0.0,0.0
15:17:44,732373.0,0.0,0.0
15:17:44,732206.0,0.0,0.0
15:17:44,731964.0,0.0,0.0
15:17:44,730756.0,0.0,0.0
15:17:44,730866.0,0.0,0.0
15:17:44,731584.0,0.0,0.0
15:17:44,732274.0,0.0,0.0
15:17:44,733055.0,0.0,0.0
15:17:44,732758.0,0.0,0.0
15:17:44,732920.0,0.0,0.0
15:17:44,732714.0,0.0,0.0
15:17:44,732394.0,0.0,0.0
15:17:44,732563.0,0.0,0.0
15:17:44,732076.0,0.0,0.0
15:17:44,732125.0,0.0,0.0
15:17:44,731781.0,0.0,0.0
15:17:44,731377.0,0.0,0.0
15:17:44,731609.0,0.0,0.0
15:17:44,731264.0,0.0,0.0
15:17:44,731530.0,0.0,0.0
15:17:45,731517.0,0.0,0.0
15:17:45,731383.0,0.0,0.0
15:17:45,731729.0,0.0,0.0
15:17:45,731357.0,0.0,0.0
15:17:45,731551.0,0.0,0.0
15:17:45,731556.0,0.0,0.0
15:17:45,731483.0,0.0,0.0
15:17:45,731762.0,0.0,0.0
15:17:45,731328.0,0.0,0.0
15:17:45,731536.0,0.0,0.0
15:17:45,731518.0,0.0,0.0
15:17:45,731425.0,0.0,0.0
15:17:45,731806.0,0.0,0.0
15:17:45,731492.0,0.0,0.0
15:17:45,731706.0,0.0,0.0
15:17:45,731700.0,0.0,0.0
15:17:45,731564.0,0.0,0.0
15:17:45,731894.0,0.0,0.0
15:17:45,731608.0,0.0,0.0
15:17:45,731724.0,0.0,0.0
15:17:45,731628.0,0.0,0.0
15:17:45,731631.0,0.0,0.0
15:17:45,732190.0,0.0,0.0
15:17:45,732013.0,0.0,0.0
15:17:45,732369.0,0.0,0.0
15:17:45,732479.0,0.0,0.0
15:17:45,731884.0,0.0,0.0
15:17:45,731620.0,0.0,0.0
15:17:45,730929.0,0.0,0.0
15:17:45,731036.0,0.0,0.0
15:17:45,731081.0,0.0,0.0
15:17:45,731056.0,0.0,0.0
15:17:45,731413.0,0.0,0.0
15:17:45,731186.0,0.0,0.0
15:17:45,731434.0,0.0,0.0
15:17:45,731507.0,0.0,0.0
15:17:45,731435.0,0.0,0.0
15:17:45,731748.0,0.0,0.0
15:17:45,731400.0,0.0,0.0
15:17:45,731606.0,0.0,0.0
15:17:45,731557.0,0.0,0.0
15:17:45,731398.0,0.0,0.0
15:17:45,731675.0,0.0,0.0
15:17:45,731332.0,0.0,0.0
15:17:45,731443.0,0.0,0.0
15:17:45,731382.0,0.0,0.0
15:17:45,731204.0,0.0,0.0
15:17:45,731420.0,0.0,0.0
15:17:45,731089.0,0.0,0.0
15:17:45,731274.0,0.0,0.0
15:17:45,731252.0,0.0,0.0
15:17:45,731173.0,0.0,0.0
15:17:45,731549.0,0.0,0.0
15:17:45,731338.0,0.0,0.0
15:17:45,731585.0,0.0,0.0
15:17:45,731619.0,0.0,0.0
15:17:45,731544.0,0.0,0.0
15:17:45,731921.0,0.0,0.0
15:17:45,731674.0,0.0,0.0
15:17:45,731837.0,0.0,0.0
15:17:45,731673.0,0.0,0.0
15:17:45,731376.0,0.0,0.0
15:17:45,731514.0,0.0,0.0
15:17:45,731226.0,0.0,0.0
15:17:45,731492.0,0.0,0.0
15:17:45,731551.0,0.0,0.0
15:17:45,731488.0,0.0,0.0
15:17:45,731762.0,0.0,0.0
15:17:45,731506.0,0.0,0.0
15:17:45,731771.0,0.0,0.0
15:17:45,731604.0,0.0,0.0
15:17:45,731324.0,0.0,0.0
15:17:45,731631.0,0.0,0.0
15:17:45,731451.0,0.0,0.0
15:17:45,731631.0,0.0,0.0
15:17:45,731534.0,0.0,0.0
15:17:45,731411.0,0.0,0.0
15:17:45,731662.0,0.0,0.0
15:17:45,731374.0,0.0,0.0
15:17:45,731603.0,0.0,0.0
15:17:45,731625.0,0.0,0.0
15:17:45,731466.0,0.0,0.0
15:17:45,731721.0,0.0,0.0
15:17:45,731473.0,0.0,0.0
15:17:45,731745.0,0.0,0.0
15:17:45,731817.0,0.0,0.0
15:17:45,731690.0,0.0,0.0
15:17:45,731889.0,0.0,0.0
15:17:45,731648.0,0.0,0.0
15:17:45,731936.0,0.0,0.0
15:17:45,731924.0,0.0,0.0
15:17:45,731566.0,0.0,0.0
15:17:45,731739.0,0.0,0.0
15:17:45,731571.0,0.0,0.0
15:17:45,731728.0,0.0,0.0
15:17:45,731629.0,0.0,0.0
15:17:45,731420.0,0.0,0.0
15:17:45,731601.0,0.0,0.0
15:17:45,731336.0,0.0,0.0
15:17:45,731535.0,0.0,0.0
15:17:45,731448.0,0.0,0.0
15:17:45,731348.0,0.0,0.0
15:17:45,731878.0,0.0,0.0
15:17:45,731923.0,0.0,0.0
15:17:45,732151.0,0.0,0.0
15:17:45,732026.0,0.0,0.0
15:17:45,731883.0,0.0,0.0
15:17:45,732179.0,0.0,0.0
15:17:45,731813.0,0.0,0.0
15:17:45,731899.0,0.0,0.0
15:17:45,731901.0,0.0,0.0
15:17:45,731778.0,0.0,0.0
15:17:45,731895.0,0.0,0.0
15:17:45,731640.0,0.0,0.0
15:17:45,731932.0,0.0,0.0
15:17:45,731912.0,0.0,0.0
15:17:45,731749.0,0.0,0.0
15:17:45,731978.0,0.0,0.0
15:17:45,731696.0,0.0,0.0
15:17:45,731860.0,0.0,0.0
15:17:45,731837.0,0.0,0.0
15:17:45,731741.0,0.0,0.0
15:17:45,731901.0,0.0,0.0
15:17:45,731516.0,0.0,0.0
15:17:46,731583.0,0.0,0.0
15:17:46,731419.0,0.0,0.0
15:17:46,731170.0,0.0,0.0
15:17:46,731333.0,0.0,0.0
15:17:46,731108.0,0.0,0.0
15:17:46,731328.0,0.0,0.0
15:17:46,731296.0,0.0,0.0
15:17:46,731233.0,0.0,0.0
15:17:46,731493.0,0.0,0.0
15:17:46,731214.0,0.0,0.0
15:17:46,731389.0,0.0,0.0
15:17:46,731355.0,0.0,0.0
15:17:46,731216.0,0.0,0.0
15:17:46,731467.0,0.0,0.0
15:17:46,731266.0,0.0,0.0
15:17:46,731491.0,0.0,0.0
15:17:46,731498.0,0.0,0.0
15:17:46,731323.0,0.0,0.0
15:17:46,731512.0,0.0,0.0
15:17:46,731291.0,0.0,0.0
15:17:46,731473.0,0.0,0.0
15:17:46,731429.0,0.0,0.0
15:17:46,731264.0,0.0,0.0
15:17:46,731546.0,0.0,0.0
15:17:46,731371.0,0.0,0.0
15:17:46,731621.0,0.0,0.0
15:17:46,731530.0,0.0,0.0
15:17:46,731351.0,0.0,0.0
15:17:46,731489.0,0.0,0.0
15:17:46,731129.0,0.0,0.0
15:17:46,731319.0,0.0,0.0
15:17:46,731353.0,0.0,0.0
15:17:46,731290.0,0.0,0.0
15:17:46,731604.0,0.0,0.0
15:17:46,731349.0,0.0,0.0
15:17:46,731314.0,0.0,0.0
15:17:46,730909.0,0.0,0.0
15:17:46,730600.0,0.0,0.0
15:17:46,730819.0,0.0,0.0
15:17:46,730556.0,0.0,0.0
15:17:46,730669.0,0.0,0.0
15:17:46,730721.0,0.0,0.0
15:17:46,730783.0,0.0,0.0
15:17:46,731091.0,0.0,0.0
15:17:46,730913.0,0.0,0.0
15:17:46,731224.0,0.0,0.0
15:17:46,731292.0,0.0,0.0
15:17:46,731256.0,0.0,0.0
15:17:46,731508.0,0.0,0.0
15:17:46,731260.0,0.0,0.0
15:17:46,731478.0,0.0,0.0
15:17:46,731454.0,0.0,0.0
15:17:46,731336.0,0.0,0.0
15:17:46,731528.0,0.0,0.0
15:17:46,731287.0,0.0,0.0
15:17:46,731550.0,0.0,0.0
15:17:46,731518.0,0.0,0.0
15:17:46,731377.0,0.0,0.0
15:17:46,731600.0,0.0,0.0
15:17:46,731339.0,0.0,0.0
15:17:46,731611.0,0.0,0.0
15:17:46,731578.0,0.0,0.0
15:17:46,731422.0,0.0,0.0
15:17:46,731664.0,0.0,0.0
15:17:46,731342.0,0.0,0.0
15:17:46,731536.0,0.0,0.0
15:17:46,731459.0,0.0,0.0
15:17:46,731344.0,0.0,0.0
15:17:46,731601.0,0.0,0.0
15:17:46,731343.0,0.0,0.0
15:17:46,731523.0,0.0,0.0
15:17:46,731494.0,0.0,0.0
15:17:46,731326.0,0.0,0.0
15:17:46,731540.0,0.0,0.0
15:17:46,731421.0,0.0,0.0
15:17:46,731920.0,0.0,0.0
15:17:46,731991.0,0.0,0.0
15:17:46,731736.0,0.0,0.0
15:17:46,731795.0,0.0,0.0
15:17:46,731387.0,0.0,0.0
15:17:46,731476.0,0.0,0.0
15:17:46,731339.0,0.0,0.0
15:17:46,731287.0,0.0,0.0
15:17:46,731694.0,0.0,0.0
15:17:46,731540.0,0.0,0.0
15:17:46,731856.0,0.0,0.0
15:17:46,731923.0,0.0,0.0
15:17:46,731930.0,0.0,0.0
15:17:46,732218.0,0.0,0.0
15:17:46,731991.0,0.0,0.0
15:17:46,732221.0,0.0,0.0
15:17:46,732259.0,0.0,0.0
15:17:46,732161.0,0.0,0.0
15:17:46,732373.0,0.0,0.0
15:17:46,732031.0,0.0,0.0
15:17:46,731930.0,0.0,0.0
15:17:46,731362.0,0.0,0.0
15:17:46,731101.0,0.0,0.0
15:17:46,731640.0,0.0,0.0
15:17:46,731765.0,0.0,0.0
15:17:46,732184.0,0.0,0.0
15:17:46,732248.0,0.0,0.0
15:17:46,732279.0,0.0,0.0
15:17:46,732660.0,0.0,0.0
15:17:46,732359.0,0.0,0.0
15:17:46,732466.0,0.0,0.0
15:17:46,732188.0,0.0,0.0
15:17:46,731874.0,0.0,0.0
15:17:46,732082.0,0.0,0.0
15:17:46,731756.0,0.0,0.0
15:17:46,732014.0,0.0,0.0
15:17:46,732106.0,0.0,0.0
15:17:46,732234.0,0.0,0.0
15:17:46,732389.0,0.0,0.0
15:17:46,731440.0,0.0,0.0
15:17:46,731056.0,0.0,0.0
15:17:46,730728.0,0.0,0.0
15:17:46,730558.0,0.0,0.0
15:17:46,730974.0,0.0,0.0
15:17:46,730908.0,0.0,0.0
15:17:46,730936.0,0.0,0.0
15:17:46,730810.0,0.0,0.0
15:17:46,730789.0,0.0,0.0
15:17:46,731089.0,0.0,0.0
15:17:46,730936.0,0.0,0.0
15:17:47,731195.0,0.0,0.0
15:17:47,731208.0,0.0,0.0
15:17:47,731136.0,0.0,0.0
15:17:47,731318.0,0.0,0.0
15:17:47,730999.0,0.0,0.0
15:17:47,731162.0,0.0,0.0
15:17:47,731043.0,0.0,0.0
15:17:47,730908.0,0.0,0.0
15:17:47,731044.0,0.0,0.0
15:17:47,730694.0,0.0,0.0
15:17:47,730902.0,0.0,0.0
15:17:47,730834.0,0.0,0.0
15:17:47,730781.0,0.0,0.0
15:17:47,731098.0,0.0,0.0
15:17:47,730864.0,0.0,0.0
15:17:47,731109.0,0.0,0.0
15:17:47,731084.0,0.0,0.0
15:17:47,731054.0,0.0,0.0
15:17:47,731301.0,0.0,0.0
15:17:47,731079.0,0.0,0.0
15:17:47,731326.0,0.0,0.0
15:17:47,731229.0,0.0,0.0
15:17:47,731131.0,0.0,0.0
15:17:47,731371.0,0.0,0.0
15:17:47,731123.0,0.0,0.0
15:17:47,731301.0,0.0,0.0
15:17:47,731223.0,0.0,0.0
15:17:47,731171.0,0.0,0.0
15:17:47,731383.0,0.0,0.0
15:17:47,731090.0,0.0,0.0
15:17:47,731273.0,0.0,0.0
15:17:47,731172.0,0.0,0.0
15:17:47,731084.0,0.0,0.0
15:17:47,731266.0,0.0,0.0
15:17:47,730994.0,0.0,0.0
15:17:47,731196.0,0.0,0.0
15:17:47,731084.0,0.0,0.0
15:17:47,731016.0,0.0,0.0
15:17:47,731219.0,0.0,0.0
15:17:47,730981.0,0.0,0.0
15:17:47,731134.0,0.0,0.0
15:17:47,731038.0,0.0,0.0
15:17:47,730904.0,0.0,0.0
15:17:47,731052.0,0.0,0.0
15:17:47,730967.0,0.0,0.0
15:17:47,731321.0,0.0,0.0
15:17:47,731260.0,0.0,0.0
15:17:47,731106.0,0.0,0.0
15:17:47,731181.0,0.0,0.0
15:17:47,730865.0,0.0,0.0
15:17:47,731024.0,0.0,0.0
15:17:47,730960.0,0.0,0.0
15:17:47,730909.0,0.0,0.0
15:17:47,731097.0,0.0,0.0
15:17:47,730868.0,0.0,0.0
15:17:47,731027.0,0.0,0.0
15:17:47,730953.0,0.0,0.0
15:17:47,730859.0,0.0,0.0
15:17:47,731024.0,0.0,0.0
15:17:47,730801.0,0.0,0.0
15:17:47,730993.0,0.0,0.0
15:17:47,730931.0,0.0,0.0
15:17:47,730861.0,0.0,0.0
15:17:47,731009.0,0.0,0.0
15:17:47,730768.0,0.0,0.0
15:17:47,730958.0,0.0,0.0
15:17:47,730841.0,0.0,0.0
15:17:47,730752.0,0.0,0.0
15:17:47,730942.0,0.0,0.0
15:17:47,730699.0,0.0,0.0
15:17:47,730874.0,0.0,0.0
15:17:47,730776.0,0.0,0.0
15:17:47,730691.0,0.0,0.0
15:17:47,730877.0,0.0,0.0
15:17:47,730752.0,0.0,0.0
15:17:47,731039.0,0.0,0.0
15:17:47,731062.0,0.0,0.0
15:17:47,731045.0,0.0,0.0
15:17:47,731253.0,0.0,0.0
15:17:47,730934.0,0.0,0.0
15:17:47,730944.0,0.0,0.0
15:17:47,731000.0,0.0,0.0
15:17:47,731272.0,0.0,0.0
15:17:47,731756.0,0.0,0.0
15:17:47,731728.0,0.0,0.0
15:17:47,731943.0,0.0,0.0
15:17:47,731861.0,0.0,0.0
15:17:47,731688.0,0.0,0.0
15:17:47,731739.0,0.0,0.0
15:17:47,731280.0,0.0,0.0
15:17:47,731212.0,0.0,0.0
15:17:47,731072.0,0.0,0.0
15:17:47,730975.0,0.0,0.0
15:17:47,731159.0,0.0,0.0
15:17:47,730882.0,0.0,0.0
15:17:47,731043.0,0.0,0.0
15:17:47,731016.0,0.0,0.0
15:17:47,730944.0,0.0,0.0
15:17:47,731065.0,0.0,0.0
15:17:47,730789.0,0.0,0.0
15:17:47,730928.0,0.0,0.0
15:17:47,730835.0,0.0,0.0
15:17:47,730723.0,0.0,0.0
15:17:47,730839.0,0.0,0.0
15:17:47,730584.0,0.0,0.0
15:17:47,730786.0,0.0,0.0
15:17:47,730745.0,0.0,0.0
15:17:47,730694.0,0.0,0.0
15:17:47,730914.0,0.0,0.0
15:17:47,730694.0,0.0,0.0
15:17:47,730891.0,0.0,0.0
15:17:47,730929.0,0.0,0.0
15:17:47,730959.0,0.0,0.0
15:17:47,731144.0,0.0,0.0
15:17:47,730555.0,0.0,0.0
15:17:47,730364.0,0.0,0.0
15:17:47,730402.0,0.0,0.0
15:17:47,730494.0,0.0,0.0
15:17:47,730747.0,0.0,0.0
15:17:47,730484.0,0.0,0.0
15:17:47,730638.0,0.0,0.0
15:17:47,730666.0,0.0,0.0
15:17:47,730696.0,0.0,0.0
15:17:47,730868.0,0.0,0.0
15:17:47,730639.0,0.0,0.0
15:17:47,730824.0,0.0,0.0
15:17:48,730752.0,0.0,0.0
15:17:48,730478.0,0.0,0.0
15:17:48,730464.0,0.0,0.0
15:17:48,730307.0,0.0,0.0
15:17:48,730527.0,0.0,0.0
15:17:48,730533.0,0.0,0.0
15:17:48,730514.0,0.0,0.0
15:17:48,730690.0,0.0,0.0
15:17:48,730509.0,0.0,0.0
15:17:48,730689.0,0.0,0.0
15:17:48,730586.0,0.0,0.0
15:17:48,730482.0,0.0,0.0
15:17:48,730541.0,0.0,0.0
15:17:48,730277.0,0.0,0.0
15:17:48,730506.0,0.0,0.0
15:17:48,730613.0,0.0,0.0
15:17:48,730629.0,0.0,0.0
15:17:48,730703.0,0.0,0.0
15:17:48,730381.0,0.0,0.0
15:17:48,730538.0,0.0,0.0
15:17:48,730529.0,0.0,0.0
15:17:48,730437.0,0.0,0.0
15:17:48,730610.0,0.0,0.0
15:17:48,730416.0,0.0,0.0
15:17:48,730623.0,0.0,0.0
15:17:48,730537.0,0.0,0.0
15:17:48,730484.0,0.0,0.0
15:17:48,730648.0,0.0,0.0
15:17:48,730470.0,0.0,0.0
15:17:48,730681.0,0.0,0.0
15:17:48,730571.0,0.0,0.0
15:17:48,730498.0,0.0,0.0
15:17:48,730641.0,0.0,0.0
15:17:48,730438.0,0.0,0.0
15:17:48,730616.0,0.0,0.0
15:17:48,730529.0,0.0,0.0
15:17:48,730448.0,0.0,0.0
15:17:48,730583.0,0.0,0.0
15:17:48,730359.0,0.0,0.0
15:17:48,730536.0,0.0,0.0
15:17:48,730506.0,0.0,0.0
15:17:48,730431.0,0.0,0.0
15:17:48,730578.0,0.0,0.0
15:17:48,730374.0,0.0,0.0
15:17:48,730574.0,0.0,0.0
15:17:48,730496.0,0.0,0.0
15:17:48,730426.0,0.0,0.0
15:17:48,730592.0,0.0,0.0
15:17:48,730364.0,0.0,0.0
15:17:48,730533.0,0.0,0.0
15:17:48,730447.0,0.0,0.0
15:17:48,730382.0,0.0,0.0
15:17:48,730521.0,0.0,0.0
15:17:48,730207.0,0.0,0.0
15:17:48,730252.0,0.0,0.0
15:17:48,730158.0,0.0,0.0
15:17:48,730240.0,0.0,0.0
15:17:48,730408.0,0.0,0.0
15:17:48,730243.0,0.0,0.0
15:17:48,730442.0,0.0,0.0
15:17:48,730329.0,0.0,0.0
15:17:48,730269.0,0.0,0.0
15:17:48,730389.0,0.0,0.0
15:17:48,730204.0,0.0,0.0
15:17:48,730398.0,0.0,0.0
15:17:48,730321.0,0.0,0.0
15:17:48,730284.0,0.0,0.0
15:17:48,730399.0,0.0,0.0
15:17:48,730199.0,0.0,0.0
15:17:48,730356.0,0.0,0.0
15:17:48,730158.0,0.0,0.0
15:17:48,730000.0,0.0,0.0
15:17:48,730380.0,0.0,0.0
15:17:48,730504.0,0.0,0.0
15:17:48,730642.0,0.0,0.0
15:17:48,730418.0,0.0,0.0
15:17:48,730250.0,0.0,0.0
15:17:48,730149.0,0.0,0.0
15:17:48,729862.0,0.0,0.0
15:17:48,730293.0,0.0,0.0
15:17:48,730320.0,0.0,0.0
15:17:48,730372.0,0.0,0.0
15:17:48,730623.0,0.0,0.0
15:17:48,730261.0,0.0,0.0
15:17:48,730246.0,0.0,0.0
15:17:48,730177.0,0.0,0.0
15:17:48,730262.0,0.0,0.0
15:17:48,730541.0,0.0,0.0
15:17:48,730383.0,0.0,0.0
15:17:48,730655.0,0.0,0.0
15:17:48,730489.0,0.0,0.0
15:17:48,730349.0,0.0,0.0
15:17:48,730493.0,0.0,0.0
15:17:48,730267.0,0.0,0.0
15:17:48,730416.0,0.0,0.0
15:17:48,730416.0,0.0,0.0
15:17:48,730409.0,0.0,0.0
15:17:48,730604.0,0.0,0.0
15:17:48,730487.0,0.0,0.0
15:17:48,730703.0,0.0,0.0
15:17:48,730666.0,0.0,0.0
15:17:48,730666.0,0.0,0.0
15:17:48,730898.0,0.0,0.0
15:17:48,730590.0,0.0,0.0
15:17:48,730677.0,0.0,0.0
15:17:48,730619.0,0.0,0.0
15:17:48,730700.0,0.0,0.0
15:17:48,730940.0,0.0,0.0
15:17:48,730740.0,0.0,0.0
15:17:48,730983.0,0.0,0.0
15:17:48,730940.0,0.0,0.0
15:17:48,730789.0,0.0,0.0
15:17:48,731116.0,0.0,0.0
15:17:48,731081.0,0.0,0.0
15:17:48,731073.0,0.0,0.0
15:17:48,730546.0,0.0,0.0
15:17:48,730210.0,0.0,0.0
15:17:48,730388.0,0.0,0.0
15:17:48,730355.0,0.0,0.0
15:17:48,730773.0,0.0,0.0
15:17:48,730865.0,0.0,0.0
15:17:48,730859.0,0.0,0.0
15:17:48,731139.0,0.0,0.0
15:17:48,730997.0,0.0,0.0
15:17:48,731354.0,0.0,0.0
15:17:49,730964.0,0.0,0.0
15:17:49,730249.0,0.0,0.0
15:17:49,730275.0,0.0,0.0
15:17:49,730182.0,0.0,0.0
15:17:49,730463.0,0.0,0.0
15:17:49,730442.0,0.0,0.0
15:17:49,730363.0,0.0,0.0
15:17:49,730479.0,0.0,0.0
15:17:49,730196.0,0.0,0.0
15:17:49,730353.0,0.0,0.0
15:17:49,730201.0,0.0,0.0
15:17:49,729987.0,0.0,0.0
15:17:49,730040.0,0.0,0.0
15:17:49,729750.0,0.0,0.0
15:17:49,729890.0,0.0,0.0
15:17:49,729851.0,0.0,0.0
15:17:49,729873.0,0.0,0.0
15:17:49,730078.0,0.0,0.0
15:17:49,729906.0,0.0,0.0
15:17:49,730128.0,0.0,0.0
15:17:49,730022.0,0.0,0.0
15:17:49,729957.0,0.0,0.0
15:17:49,730073.0,0.0,0.0
15:17:49,729810.0,0.0,0.0
15:17:49,729984.0,0.0,0.0
15:17:49,729914.0,0.0,0.0
15:17:49,729844.0,0.0,0.0
15:17:49,730042.0,0.0,0.0
15:17:49,729789.0,0.0,0.0
15:17:49,729974.0,0.0,0.0
15:17:49,729888.0,0.0,0.0
15:17:49,729832.0,0.0,0.0
15:17:49,730023.0,0.0,0.0
15:17:49,729820.0,0.0,0.0
15:17:49,730005.0,0.0,0.0
15:17:49,729975.0,0.0,0.0
15:17:49,729919.0,0.0,0.0
15:17:49,730060.0,0.0,0.0
15:17:49,729816.0,0.0,0.0
15:17:49,729984.0,0.0,0.0
15:17:49,729936.0,0.0,0.0
15:17:49,729887.0,0.0,0.0
15:17:49,730017.0,0.0,0.0
15:17:49,729807.0,0.0,0.0
15:17:49,729958.0,0.0,0.0
15:17:49,729904.0,0.0,0.0
15:17:49,729808.0,0.0,0.0
15:17:49,729937.0,0.0,0.0
15:17:49,729756.0,0.0,0.0
15:17:49,729943.0,0.0,0.0
15:17:49,729899.0,0.0,0.0
15:17:49,729882.0,0.0,0.0
15:17:49,729997.0,0.0,0.0
15:17:49,729790.0,0.0,0.0
15:17:49,729937.0,0.0,0.0
15:17:49,729876.0,0.0,0.0
15:17:49,729845.0,0.0,0.0
15:17:49,729971.0,0.0,0.0
15:17:49,729766.0,0.0,0.0
15:17:49,729902.0,0.0,0.0
15:17:49,729808.0,0.0,0.0
15:17:49,729770.0,0.0,0.0
15:17:49,729939.0,0.0,0.0
15:17:49,729719.0,0.0,0.0
15:17:49,729893.0,0.0,0.0
15:17:49,729848.0,0.0,0.0
15:17:49,729861.0,0.0,0.0
15:17:49,730021.0,0.0,0.0
15:17:49,729813.0,0.0,0.0
15:17:49,729978.0,0.0,0.0
15:17:49,729904.0,0.0,0.0
15:17:49,729887.0,0.0,0.0
15:17:49,730075.0,0.0,0.0
15:17:49,729906.0,0.0,0.0
15:17:49,730103.0,0.0,0.0
15:17:49,730062.0,0.0,0.0
15:17:49,730033.0,0.0,0.0
15:17:49,730193.0,0.0,0.0
15:17:49,730007.0,0.0,0.0
15:17:49,730206.0,0.0,0.0
15:17:49,730121.0,0.0,0.0
15:17:49,729980.0,0.0,0.0
15:17:49,730069.0,0.0,0.0
15:17:49,729949.0,0.0,0.0
15:17:49,730254.0,0.0,0.0
15:17:49,730234.0,0.0,0.0
15:17:49,730061.0,0.0,0.0
15:17:49,730073.0,0.0,0.0
15:17:49,729872.0,0.0,0.0
15:17:49,730055.0,0.0,0.0
15:17:49,730003.0,0.0,0.0
15:17:49,729989.0,0.0,0.0
15:17:49,730135.0,0.0,0.0
15:17:49,729974.0,0.0,0.0
15:17:49,730147.0,0.0,0.0
15:17:49,730053.0,0.0,0.0
15:17:49,729989.0,0.0,0.0
15:17:49,730124.0,0.0,0.0
15:17:49,729985.0,0.0,0.0
15:17:49,730156.0,0.0,0.0
15:17:49,730072.0,0.0,0.0
15:17:49,730010.0,0.0,0.0
15:17:49,730118.0,0.0,0.0
15:17:49,729918.0,0.0,0.0
15:17:49,730078.0,0.0,0.0
15:17:49,729991.0,0.0,0.0
15:17:49,729873.0,0.0,0.0
15:17:49,729965.0,0.0,0.0
15:17:49,729823.0,0.0,0.0
15:17:49,730016.0,0.0,0.0
15:17:49,729941.0,0.0,0.0
15:17:49,729873.0,0.0,0.0
15:17:49,730026.0,0.0,0.0
15:17:49,729881.0,0.0,0.0
15:17:49,730048.0,0.0,0.0
15:17:49,729973.0,0.0,0.0
15:17:49,729967.0,0.0,0.0
15:17:49,730158.0,0.0,0.0
15:17:49,729999.0,0.0,0.0
15:17:49,730180.0,0.0,0.0
15:17:49,730109.0,0.0,0.0
15:17:49,730060.0,0.0,0.0
15:17:49,730189.0,0.0,0.0
15:17:49,729988.0,0.0,0.0
15:17:50,730156.0,0.0,0.0
15:17:50,730108.0,0.0,0.0
15:17:50,730066.0,0.0,0.0
15:17:50,730185.0,0.0,0.0
15:17:50,729979.0,0.0,0.0
15:17:50,730126.0,0.0,0.0
15:17:50,730091.0,0.0,0.0
15:17:50,729997.0,0.0,0.0
15:17:50,730131.0,0.0,0.0
15:17:50,729953.0,0.0,0.0
15:17:50,730107.0,0.0,0.0
15:17:50,730056.0,0.0,0.0
15:17:50,730031.0,0.0,0.0
15:17:50,730137.0,0.0,0.0
15:17:50,729915.0,0.0,0.0
15:17:50,730086.0,0.0,0.0
15:17:50,730088.0,0.0,0.0
15:17:50,730029.0,0.0,0.0
15:17:50,730125.0,0.0,0.0
15:17:50,729916.0,0.0,0.0
15:17:50,730094.0,0.0,0.0
15:17:50,730001.0,0.0,0.0
15:17:50,729919.0,0.0,0.0
15:17:50,730063.0,0.0,0.0
15:17:50,729865.0,0.0,0.0
15:17:50,729951.0,0.0,0.0
15:17:50,729867.0,0.0,0.0
15:17:50,729836.0,0.0,0.0
15:17:50,729976.0,0.0,0.0
15:17:50,729813.0,0.0,0.0
15:17:50,729974.0,0.0,0.0
15:17:50,729948.0,0.0,0.0
15:17:50,729926.0,0.0,0.0
15:17:50,730099.0,0.0,0.0
15:17:50,729946.0,0.0,0.0
15:17:50,730096.0,0.0,0.0
15:17:50,730083.0,0.0,0.0
15:17:50,730124.0,0.0,0.0
15:17:50,730264.0,0.0,0.0
15:17:50,730084.0,0.0,0.0
15:17:50,730241.0,0.0,0.0
15:17:50,730146.0,0.0,0.0
15:17:50,730096.0,0.0,0.0
15:17:50,730191.0,0.0,0.0
15:17:50,730008.0,0.0,0.0
15:17:50,730132.0,0.0,0.0
15:17:50,730077.0,0.0,0.0
15:17:50,730049.0,0.0,0.0
15:17:50,730161.0,0.0,0.0
15:17:50,729991.0,0.0,0.0
15:17:50,730141.0,0.0,0.0
15:17:50,730126.0,0.0,0.0
15:17:50,730214.0,0.0,0.0
15:17:50,730415.0,0.0,0.0
15:17:50,730331.0,0.0,0.0
15:17:50,730623.0,0.0,0.0
15:17:50,730627.0,0.0,0.0
15:17:50,730416.0,0.0,0.0
15:17:50,730325.0,0.0,0.0
15:17:50,730031.0,0.0,0.0
15:17:50,730182.0,0.0,0.0
15:17:50,730028.0,0.0,0.0
15:17:50,729877.0,0.0,0.0
15:17:50,729943.0,0.0,0.0
15:17:50,729776.0,0.0,0.0
15:17:50,729924.0,0.0,0.0
15:17:50,729753.0,0.0,0.0
15:17:50,729663.0,0.0,0.0
15:17:50,729776.0,0.0,0.0
15:17:50,729618.0,0.0,0.0
15:17:50,729864.0,0.0,0.0
15:17:50,729779.0,0.0,0.0
15:17:50,729716.0,0.0,0.0
15:17:50,729854.0,0.0,0.0
15:17:50,729681.0,0.0,0.0
15:17:50,729806.0,0.0,0.0
15:17:50,729731.0,0.0,0.0
15:17:50,729723.0,0.0,0.0
15:17:50,729854.0,0.0,0.0
15:17:50,729688.0,0.0,0.0
15:17:50,729861.0,0.0,0.0
15:17:50,729816.0,0.0,0.0
15:17:50,729813.0,0.0,0.0
15:17:50,729965.0,0.0,0.0
15:17:50,729803.0,0.0,0.0
15:17:50,729952.0,0.0,0.0
15:17:50,729866.0,0.0,0.0
15:17:50,729824.0,0.0,0.0
15:17:50,729970.0,0.0,0.0
15:17:50,729826.0,0.0,0.0
15:17:50,730029.0,0.0,0.0
15:17:50,729980.0,0.0,0.0
15:17:50,729979.0,0.0,0.0
15:17:50,730131.0,0.0,0.0
15:17:50,729984.0,0.0,0.0
15:17:50,730149.0,0.0,0.0
15:17:50,730053.0,0.0,0.0
15:17:50,730047.0,0.0,0.0
15:17:50,730178.0,0.0,0.0
15:17:50,729962.0,0.0,0.0
15:17:50,730168.0,0.0,0.0
15:17:50,730052.0,0.0,0.0
15:17:50,730013.0,0.0,0.0
15:17:50,730144.0,0.0,0.0
15:17:50,729984.0,0.0,0.0
15:17:50,730143.0,0.0,0.0
15:17:50,730069.0,0.0,0.0
15:17:50,730047.0,0.0,0.0
15:17:50,730179.0,0.0,0.0
15:17:50,730006.0,0.0,0.0
15:17:50,730164.0,0.0,0.0
15:17:50,730081.0,0.0,0.0
15:17:50,730063.0,0.0,0.0
15:17:50,730175.0,0.0,0.0
15:17:50,730006.0,0.0,0.0
15:17:50,730249.0,0.0,0.0
15:17:50,730187.0,0.0,0.0
15:17:50,730135.0,0.0,0.0
15:17:50,730249.0,0.0,0.0
15:17:50,730049.0,0.0,0.0
15:17:50,730216.0,0.0,0.0
15:17:50,730126.0,0.0,0.0
15:17:50,730091.0,0.0,0.0
15:17:50,730236.0,0.0,0.0
15:17:50,730038.0,0.0,0.0
15:17:51,730189.0,0.0,0.0
15:17:51,730099.0,0.0,0.0
15:17:51,730124.0,0.0,0.0
15:17:51,730236.0,0.0,0.0
15:17:51,730041.0,0.0,0.0
15:17:51,730224.0,0.0,0.0
15:17:51,730121.0,0.0,0.0
15:17:51,730103.0,0.0,0.0
15:17:51,730235.0,0.0,0.0
15:17:51,730057.0,0.0,0.0
15:17:51,730199.0,0.0,0.0
15:17:51,730118.0,0.0,0.0
15:17:51,730109.0,0.0,0.0
15:17:51,730261.0,0.0,0.0
15:17:51,730024.0,0.0,0.0
15:17:51,730219.0,0.0,0.0
15:17:51,730152.0,0.0,0.0
15:17:51,730152.0,0.0,0.0
15:17:51,730294.0,0.0,0.0
15:17:51,730102.0,0.0,0.0
15:17:51,730284.0,0.0,0.0
15:17:51,730184.0,0.0,0.0
15:17:51,730069.0,0.0,0.0
15:17:51,730136.0,0.0,0.0
15:17:51,730003.0,0.0,0.0
15:17:51,730378.0,0.0,0.0
15:17:51,730364.0,0.0,0.0
15:17:51,730251.0,0.0,0.0
15:17:51,730288.0,0.0,0.0
15:17:51,730044.0,0.0,0.0
15:17:51,730231.0,0.0,0.0
15:17:51,730123.0,0.0,0.0
15:17:51,730146.0,0.0,0.0
15:17:51,730337.0,0.0,0.0
15:17:51,730132.0,0.0,0.0
15:17:51,730312.0,0.0,0.0
15:17:51,730202.0,0.0,0.0
15:17:51,730168.0,0.0,0.0
15:17:51,730311.0,0.0,0.0
15:17:51,730122.0,0.0,0.0
15:17:51,730320.0,0.0,0.0
15:17:51,730191.0,0.0,0.0
15:17:51,730168.0,0.0,0.0
15:17:51,730338.0,0.0,0.0
15:17:51,730128.0,0.0,0.0
15:17:51,730291.0,0.0,0.0
15:17:51,730199.0,0.0,0.0
15:17:51,730162.0,0.0,0.0
15:17:51,730303.0,0.0,0.0
15:17:51,730084.0,0.0,0.0
15:17:51,730246.0,0.0,0.0
15:17:51,730159.0,0.0,0.0
15:17:51,730173.0,0.0,0.0
15:17:51,730306.0,0.0,0.0
15:17:51,730099.0,0.0,0.0
15:17:51,730286.0,0.0,0.0
15:17:51,730183.0,0.0,0.0
15:17:51,730148.0,0.0,0.0
15:17:51,730278.0,0.0,0.0
15:17:51,730088.0,0.0,0.0
15:17:51,730306.0,0.0,0.0
15:17:51,730179.0,0.0,0.0
15:17:51,730177.0,0.0,0.0
15:17:51,730344.0,0.0,0.0
15:17:51,730129.0,0.0,0.0
15:17:51,730288.0,0.0,0.0
15:17:51,730200.0,0.0,0.0
15:17:51,730158.0,0.0,0.0
15:17:51,730318.0,0.0,0.0
15:17:51,730091.0,0.0,0.0
15:17:51,730341.0,0.0,0.0
15:17:51,730249.0,0.0,0.0
15:17:51,730204.0,0.0,0.0
15:17:51,730426.0,0.0,0.0
15:17:51,730296.0,0.0,0.0
15:17:51,730513.0,0.0,0.0
15:17:51,730435.0,0.0,0.0
15:17:51,730356.0,0.0,0.0
15:17:51,730487.0,0.0,0.0
15:17:51,730334.0,0.0,0.0
15:17:51,730574.0,0.0,0.0
15:17:51,730483.0,0.0,0.0
15:17:51,730431.0,0.0,0.0
15:17:51,730536.0,0.0,0.0
15:17:51,730136.0,0.0,0.0
15:17:51,730164.0,0.0,0.0
15:17:51,730162.0,0.0,0.0
15:17:51,730400.0,0.0,0.0
15:17:51,730908.0,0.0,0.0
15:17:51,730899.0,0.0,0.0
15:17:51,730917.0,0.0,0.0
15:17:51,730504.0,0.0,0.0
15:17:51,730432.0,0.0,0.0
15:17:51,730681.0,0.0,0.0
15:17:51,730549.0,0.0,0.0
15:17:51,730686.0,0.0,0.0
15:17:51,730414.0,0.0,0.0
15:17:51,730282.0,0.0,0.0
15:17:51,730426.0,0.0,0.0
15:17:51,730230.0,0.0,0.0
15:17:51,730499.0,0.0,0.0
15:17:51,730377.0,0.0,0.0
15:17:51,730308.0,0.0,0.0
15:17:51,730320.0,0.0,0.0
15:17:51,729953.0,0.0,0.0
15:17:51,730116.0,0.0,0.0
15:17:51,730027.0,0.0,0.0
15:17:51,729974.0,0.0,0.0
15:17:51,730050.0,0.0,0.0
15:17:51,729868.0,0.0,0.0
15:17:51,730136.0,0.0,0.0
15:17:51,730024.0,0.0,0.0
15:17:51,730037.0,0.0,0.0
15:17:51,730183.0,0.0,0.0
15:17:51,730056.0,0.0,0.0
15:17:51,730259.0,0.0,0.0
15:17:51,730124.0,0.0,0.0
15:17:51,730098.0,0.0,0.0
15:17:51,730211.0,0.0,0.0
15:17:51,730088.0,0.0,0.0
15:17:51,730484.0,0.0,0.0
15:17:51,730528.0,0.0,0.0
15:17:51,730444.0,0.0,0.0
15:17:51,730476.0,0.0,0.0
15:17:51,730213.0,0.0,0.0
15:17:52,730424.0,0.0,0.0
15:17:52,730356.0,0.0,0.0
15:17:52,730349.0,0.0,0.0
15:17:52,730466.0,0.0,0.0
15:17:52,730258.0,0.0,0.0
15:17:52,730431.0,0.0,0.0
15:17:52,730321.0,0.0,0.0
15:17:52,730333.0,0.0,0.0
15:17:52,730471.0,0.0,0.0
15:17:52,730256.0,0.0,0.0
15:17:52,730391.0,0.0,0.0
15:17:52,730272.0,0.0,0.0
15:17:52,730239.0,0.0,0.0
15:17:52,730360.0,0.0,0.0
15:17:52,730043.0,0.0,0.0
15:17:52,729978.0,0.0,0.0
15:17:52,729818.0,0.0,0.0
15:17:52,729968.0,0.0,0.0
15:17:52,730198.0,0.0,0.0
15:17:52,730079.0,0.0,0.0
15:17:52,730328.0,0.0,0.0
15:17:52,730231.0,0.0,0.0
15:17:52,730219.0,0.0,0.0
15:17:52,730358.0,0.0,0.0
15:17:52,730109.0,0.0,0.0
15:17:52,730194.0,0.0,0.0
15:17:52,730046.0,0.0,0.0
15:17:52,730091.0,0.0,0.0
15:17:52,730234.0,0.0,0.0
15:17:52,729683.0,0.0,0.0
15:17:52,728853.0,0.0,0.0
15:17:52,728616.0,0.0,0.0
15:17:52,729870.0,0.0,0.0
15:17:52,731076.0,0.0,0.0
15:17:52,731323.0,0.0,0.0
15:17:52,731620.0,0.0,0.0
15:17:52,731422.0,0.0,0.0
15:17:52,731209.0,0.0,0.0
15:17:52,731056.0,0.0,0.0
15:17:52,730604.0,0.0,0.0
15:17:52,730609.0,0.0,0.0
15:17:52,730269.0,0.0,0.0
15:17:52,730144.0,0.0,0.0
15:17:52,730119.0,0.0,0.0
15:17:52,729754.0,0.0,0.0
15:17:52,729853.0,0.0,0.0
15:17:52,729701.0,0.0,0.0
15:17:52,729713.0,0.0,0.0
15:17:52,729839.0,0.0,0.0
15:17:52,729564.0,0.0,0.0
15:17:52,729733.0,0.0,0.0
15:17:52,729538.0,0.0,0.0
15:17:52,729481.0,0.0,0.0
15:17:52,729548.0,0.0,0.0
15:17:52,729288.0,0.0,0.0
15:17:52,729547.0,0.0,0.0
15:17:52,729423.0,0.0,0.0
15:17:52,729394.0,0.0,0.0
15:17:52,729484.0,0.0,0.0
15:17:52,729281.0,0.0,0.0
15:17:52,729483.0,0.0,0.0
15:17:52,729329.0,0.0,0.0
15:17:52,729318.0,0.0,0.0
15:17:52,729462.0,0.0,0.0
15:17:52,729214.0,0.0,0.0
15:17:52,729424.0,0.0,0.0
15:17:52,729268.0,0.0,0.0
15:17:52,729247.0,0.0,0.0
15:17:52,729343.0,0.0,0.0
15:17:52,729133.0,0.0,0.0
15:17:52,729404.0,0.0,0.0
15:17:52,729293.0,0.0,0.0
15:17:52,729355.0,0.0,0.0
15:17:52,729564.0,0.0,0.0
15:17:52,729353.0,0.0,0.0
15:17:52,729561.0,0.0,0.0
15:17:52,729481.0,0.0,0.0
15:17:52,729504.0,0.0,0.0
15:17:52,729601.0,0.0,0.0
15:17:52,729373.0,0.0,0.0
15:17:52,729569.0,0.0,0.0
15:17:52,729389.0,0.0,0.0
15:17:52,729429.0,0.0,0.0
15:17:52,729548.0,0.0,0.0
15:17:52,729284.0,0.0,0.0
15:17:52,729487.0,0.0,0.0
15:17:52,729303.0,0.0,0.0
15:17:52,729254.0,0.0,0.0
15:17:52,729359.0,0.0,0.0
15:17:52,729089.0,0.0,0.0
15:17:52,729498.0,0.0,0.0
15:17:52,729655.0,0.0,0.0
15:17:52,729723.0,0.0,0.0
15:17:52,729361.0,0.0,0.0
15:17:52,728962.0,0.0,0.0
15:17:52,729371.0,0.0,0.0
15:17:52,729423.0,0.0,0.0
15:17:52,729587.0,0.0,0.0
15:17:52,729785.0,0.0,0.0
15:17:52,729503.0,0.0,0.0
15:17:52,729604.0,0.0,0.0
15:17:52,729450.0,0.0,0.0
15:17:52,729203.0,0.0,0.0
15:17:52,729076.0,0.0,0.0
15:17:52,728804.0,0.0,0.0
15:17:52,729167.0,0.0,0.0
15:17:52,729188.0,0.0,0.0
15:17:52,729323.0,0.0,0.0
15:17:52,729598.0,0.0,0.0
15:17:52,729474.0,0.0,0.0
15:17:52,729689.0,0.0,0.0
15:17:52,729557.0,0.0,0.0
15:17:52,729617.0,0.0,0.0
15:17:52,729795.0,0.0,0.0
15:17:52,729569.0,0.0,0.0
15:17:52,729825.0,0.0,0.0
15:17:52,729678.0,0.0,0.0
15:17:52,729602.0,0.0,0.0
15:17:52,729682.0,0.0,0.0
15:17:52,729436.0,0.0,0.0
15:17:52,729645.0,0.0,0.0
15:17:52,729507.0,0.0,0.0
15:17:52,729506.0,0.0,0.0
15:17:52,729614.0,0.0,0.0
15:17:52,729382.0,0.0,0.0
15:17:53,729551.0,0.0,0.0
15:17:53,729364.0,0.0,0.0
15:17:53,729386.0,0.0,0.0
15:17:53,729553.0,0.0,0.0
15:17:53,729319.0,0.0,0.0
15:17:53,729600.0,0.0,0.0
15:17:53,729472.0,0.0,0.0
15:17:53,729519.0,0.0,0.0
15:17:53,729688.0,0.0,0.0
15:17:53,729444.0,0.0,0.0
15:17:53,729681.0,0.0,0.0
15:17:53,729519.0,0.0,0.0
15:17:53,729513.0,0.0,0.0
15:17:53,729667.0,0.0,0.0
15:17:53,729413.0,0.0,0.0
15:17:53,729652.0,0.0,0.0
15:17:53,729438.0,0.0,0.0
15:17:53,729408.0,0.0,0.0
15:17:53,729551.0,0.0,0.0
15:17:53,729331.0,0.0,0.0
15:17:53,729554.0,0.0,0.0
15:17:53,729365.0,0.0,0.0
15:17:53,729379.0,0.0,0.0
15:17:53,729471.0,0.0,0.0
15:17:53,729248.0,0.0,0.0
15:17:53,729552.0,0.0,0.0
15:17:53,729360.0,0.0,0.0
15:17:53,729358.0,0.0,0.0
15:17:53,729498.0,0.0,0.0
15:17:53,729272.0,0.0,0.0
15:17:53,729529.0,0.0,0.0
15:17:53,729368.0,0.0,0.0
15:17:53,729409.0,0.0,0.0
15:17:53,729595.0,0.0,0.0
15:17:53,729314.0,0.0,0.0
15:17:53,729564.0,0.0,0.0
15:17:53,729371.0,0.0,0.0
15:17:53,729441.0,0.0,0.0
15:17:53,729643.0,0.0,0.0
15:17:53,729439.0,0.0,0.0
15:17:53,729818.0,0.0,0.0
15:17:53,729646.0,0.0,0.0
15:17:53,729646.0,0.0,0.0
15:17:53,729779.0,0.0,0.0
15:17:53,729497.0,0.0,0.0
15:17:53,729766.0,0.0,0.0
15:17:53,729579.0,0.0,0.0
15:17:53,729665.0,0.0,0.0
15:17:53,729946.0,0.0,0.0
15:17:53,729759.0,0.0,0.0
15:17:53,730113.0,0.0,0.0
15:17:53,729983.0,0.0,0.0
15:17:53,729906.0,0.0,0.0
15:17:53,730008.0,0.0,0.0
15:17:53,729796.0,0.0,0.0
15:17:53,730259.0,0.0,0.0
15:17:53,730110.0,0.0,0.0
15:17:53,730132.0,0.0,0.0
15:17:53,730291.0,0.0,0.0
15:17:53,729939.0,0.0,0.0
15:17:53,730191.0,0.0,0.0
15:17:53,729894.0,0.0,0.0
15:17:53,729769.0,0.0,0.0
15:17:53,729965.0,0.0,0.0
15:17:53,729803.0,0.0,0.0
15:17:53,730218.0,0.0,0.0
15:17:53,729908.0,0.0,0.0
15:17:53,729785.0,0.0,0.0
15:17:53,729876.0,0.0,0.0
15:17:53,729574.0,0.0,0.0
15:17:53,729905.0,0.0,0.0
15:17:53,729670.0,0.0,0.0
15:17:53,729637.0,0.0,0.0
15:17:53,729774.0,0.0,0.0
15:17:53,729444.0,0.0,0.0
15:17:53,729764.0,0.0,0.0
15:17:53,729553.0,0.0,0.0
15:17:53,729601.0,0.0,0.0
15:17:53,729834.0,0.0,0.0
15:17:53,729603.0,0.0,0.0
15:17:53,730055.0,0.0,0.0
15:17:53,729844.0,0.0,0.0
15:17:53,729507.0,0.0,0.0
15:17:53,729527.0,0.0,0.0
15:17:53,729430.0,0.0,0.0
15:17:53,729917.0,0.0,0.0
15:17:53,729730.0,0.0,0.0
15:17:53,729578.0,0.0,0.0
15:17:53,729658.0,0.0,0.0
15:17:53,729279.0,0.0,0.0
15:17:53,729494.0,0.0,0.0
15:17:53,729261.0,0.0,0.0
15:17:53,729364.0,0.0,0.0
15:17:53,729489.0,0.0,0.0
15:17:53,729074.0,0.0,0.0
15:17:53,729184.0,0.0,0.0
15:17:53,728967.0,0.0,0.0
15:17:53,729049.0,0.0,0.0
15:17:53,729273.0,0.0,0.0
15:17:53,729051.0,0.0,0.0
15:17:53,729378.0,0.0,0.0
15:17:53,729244.0,0.0,0.0
15:17:53,729278.0,0.0,0.0
15:17:53,729425.0,0.0,0.0
15:17:53,729168.0,0.0,0.0
15:17:53,729446.0,0.0,0.0
15:17:53,729314.0,0.0,0.0
15:17:53,729293.0,0.0,0.0
15:17:53,729436.0,0.0,0.0
15:17:53,729164.0,0.0,0.0
15:17:53,729420.0,0.0,0.0
15:17:53,729229.0,0.0,0.0
15:17:53,729283.0,0.0,0.0
15:17:53,729446.0,0.0,0.0
15:17:53,729193.0,0.0,0.0
15:17:53,729469.0,0.0,0.0
15:17:53,729303.0,0.0,0.0
15:17:53,729338.0,0.0,0.0
15:17:53,729493.0,0.0,0.0
15:17:53,729293.0,0.0,0.0
15:17:53,729609.0,0.0,0.0
15:17:53,729418.0,0.0,0.0
15:17:53,729464.0,0.0,0.0
15:17:53,729585.0,0.0,0.0
15:17:53,729318.0,0.0,0.0
15:17:54,729547.0,0.0,0.0
15:17:54,729337.0,0.0,0.0
15:17:54,729363.0,0.0,0.0
15:17:54,729554.0,0.0,0.0
15:17:54,729337.0,0.0,0.0
15:17:54,729617.0,0.0,0.0
15:17:54,729387.0,0.0,0.0
15:17:54,729434.0,0.0,0.0
15:17:54,729582.0,0.0,0.0
15:17:54,729206.0,0.0,0.0
15:17:54,729287.0,0.0,0.0
15:17:54,728998.0,0.0,0.0
15:17:54,729052.0,0.0,0.0
15:17:54,729324.0,0.0,0.0
15:17:54,729143.0,0.0,0.0
15:17:54,729429.0,0.0,0.0
15:17:54,729276.0,0.0,0.0
15:17:54,729301.0,0.0,0.0
15:17:54,729474.0,0.0,0.0
15:17:54,729189.0,0.0,0.0
15:17:54,729426.0,0.0,0.0
15:17:54,729258.0,0.0,0.0
15:17:54,729229.0,0.0,0.0
15:17:54,729358.0,0.0,0.0
15:17:54,728973.0,0.0,0.0
15:17:54,729083.0,0.0,0.0
15:17:54,728563.0,0.0,0.0
15:17:54,728623.0,0.0,0.0
15:17:54,729413.0,0.0,0.0
15:17:54,729861.0,0.0,0.0
15:17:54,730511.0,0.0,0.0
15:17:54,730397.0,0.0,0.0
15:17:54,730313.0,0.0,0.0
15:17:54,730244.0,0.0,0.0
15:17:54,729750.0,0.0,0.0
15:17:54,729866.0,0.0,0.0
15:17:54,729679.0,0.0,0.0
15:17:54,729693.0,0.0,0.0
15:17:54,729607.0,0.0,0.0
15:17:54,729139.0,0.0,0.0
15:17:54,729293.0,0.0,0.0
15:17:54,729007.0,0.0,0.0
15:17:54,728926.0,0.0,0.0
15:17:54,729056.0,0.0,0.0
15:17:54,728794.0,0.0,0.0
15:17:54,729055.0,0.0,0.0
15:17:54,728811.0,0.0,0.0
15:17:54,728793.0,0.0,0.0
15:17:54,728908.0,0.0,0.0
15:17:54,728639.0,0.0,0.0
15:17:54,728862.0,0.0,0.0
15:17:54,728640.0,0.0,0.0
15:17:54,728641.0,0.0,0.0
15:17:54,728784.0,0.0,0.0
15:17:54,728546.0,0.0,0.0
15:17:54,728853.0,0.0,0.0
15:17:54,728694.0,0.0,0.0
15:17:54,728745.0,0.0,0.0
15:17:54,728884.0,0.0,0.0
15:17:54,728619.0,0.0,0.0
15:17:54,728913.0,0.0,0.0
15:17:54,728744.0,0.0,0.0
15:17:54,728756.0,0.0,0.0
15:17:54,728893.0,0.0,0.0
15:17:54,728678.0,0.0,0.0
15:17:54,728989.0,0.0,0.0
15:17:54,728829.0,0.0,0.0
15:17:54,728919.0,0.0,0.0
15:17:54,729050.0,0.0,0.0
15:17:54,728801.0,0.0,0.0
15:17:54,728833.0,0.0,0.0
15:17:54,728384.0,0.0,0.0
15:17:54,728515.0,0.0,0.0
15:17:54,728631.0,0.0,0.0
15:17:54,728369.0,0.0,0.0
15:17:54,728568.0,0.0,0.0
15:17:54,728009.0,0.0,0.0
15:17:54,727847.0,0.0,0.0
15:17:54,728108.0,0.0,0.0
15:17:54,728199.0,0.0,0.0
15:17:54,728728.0,0.0,0.0
15:17:54,728723.0,0.0,0.0
15:17:54,728865.0,0.0,0.0
15:17:54,729098.0,0.0,0.0
15:17:54,728906.0,0.0,0.0
15:17:54,729244.0,0.0,0.0
15:17:54,729098.0,0.0,0.0
15:17:54,729236.0,0.0,0.0
15:17:54,729468.0,0.0,0.0
15:17:54,729278.0,0.0,0.0
15:17:54,729596.0,0.0,0.0
15:17:54,729383.0,0.0,0.0
15:17:54,729348.0,0.0,0.0
15:17:54,729434.0,0.0,0.0
15:17:54,729088.0,0.0,0.0
15:17:54,729331.0,0.0,0.0
15:17:54,729093.0,0.0,0.0
15:17:54,729144.0,0.0,0.0
15:17:54,729266.0,0.0,0.0
15:17:54,728956.0,0.0,0.0
15:17:54,729261.0,0.0,0.0
15:17:54,729098.0,0.0,0.0
15:17:54,729119.0,0.0,0.0
15:17:54,729278.0,0.0,0.0
15:17:54,729021.0,0.0,0.0
15:17:54,729354.0,0.0,0.0
15:17:54,729174.0,0.0,0.0
15:17:54,729246.0,0.0,0.0
15:17:54,729403.0,0.0,0.0
15:17:54,729178.0,0.0,0.0
15:17:54,729478.0,0.0,0.0
15:17:54,729333.0,0.0,0.0
15:17:54,729434.0,0.0,0.0
15:17:54,729558.0,0.0,0.0
15:17:54,729239.0,0.0,0.0
15:17:54,729538.0,0.0,0.0
15:17:54,729311.0,0.0,0.0
15:17:54,729365.0,0.0,0.0
15:17:54,729481.0,0.0,0.0
15:17:54,729129.0,0.0,0.0
15:17:54,729383.0,0.0,0.0
15:17:54,729181.0,0.0,0.0
15:17:54,729233.0,0.0,0.0
15:17:54,729375.0,0.0,0.0
15:17:54,729114.0,0.0,0.0
15:17:55,729398.0,0.0,0.0
15:17:55,729148.0,0.0,0.0
15:17:55,729203.0,0.0,0.0
15:17:55,729356.0,0.0,0.0
15:17:55,729094.0,0.0,0.0
15:17:55,729376.0,0.0,0.0
15:17:55,729106.0,0.0,0.0
15:17:55,729116.0,0.0,0.0
15:17:55,729214.0,0.0,0.0
15:17:55,729034.0,0.0,0.0
15:17:55,729580.0,0.0,0.0
15:17:55,729314.0,0.0,0.0
15:17:55,729224.0,0.0,0.0
15:17:55,729276.0,0.0,0.0
15:17:55,728983.0,0.0,0.0
15:17:55,729320.0,0.0,0.0
15:17:55,729121.0,0.0,0.0
15:17:55,729178.0,0.0,0.0
15:17:55,729305.0,0.0,0.0
15:17:55,729014.0,0.0,0.0
15:17:55,729328.0,0.0,0.0
15:17:55,729066.0,0.0,0.0
15:17:55,729133.0,0.0,0.0
15:17:55,729249.0,0.0,0.0
15:17:55,728949.0,0.0,0.0
15:17:55,729279.0,0.0,0.0
15:17:55,729014.0,0.0,0.0
15:17:55,729085.0,0.0,0.0
15:17:55,729275.0,0.0,0.0
15:17:55,728944.0,0.0,0.0
15:17:55,729308.0,0.0,0.0
15:17:55,729047.0,0.0,0.0
15:17:55,729080.0,0.0,0.0
15:17:55,729241.0,0.0,0.0
15:17:55,728953.0,0.0,0.0
15:17:55,729324.0,0.0,0.0
15:17:55,729069.0,0.0,0.0
15:17:55,729096.0,0.0,0.0
15:17:55,729235.0,0.0,0.0
15:17:55,728903.0,0.0,0.0
15:17:55,729251.0,0.0,0.0
15:17:55,728971.0,0.0,0.0
15:17:55,728980.0,0.0,0.0
15:17:55,729129.0,0.0,0.0
15:17:55,728849.0,0.0,0.0
15:17:55,729216.0,0.0,0.0
15:17:55,729013.0,0.0,0.0
15:17:55,729168.0,0.0,0.0
15:17:55,729311.0,0.0,0.0
15:17:55,728911.0,0.0,0.0
15:17:55,729269.0,0.0,0.0
15:17:55,729196.0,0.0,0.0
15:17:55,729479.0,0.0,0.0
15:17:55,729752.0,0.0,0.0
15:17:55,729444.0,0.0,0.0
15:17:55,729781.0,0.0,0.0
15:17:55,729496.0,0.0,0.0
15:17:55,729520.0,0.0,0.0
15:17:55,729672.0,0.0,0.0
15:17:55,729203.0,0.0,0.0
15:17:55,729448.0,0.0,0.0
15:17:55,729151.0,0.0,0.0
15:17:55,729208.0,0.0,0.0
15:17:55,729399.0,0.0,0.0
15:17:55,729110.0,0.0,0.0
15:17:55,729529.0,0.0,0.0
15:17:55,729291.0,0.0,0.0
15:17:55,729346.0,0.0,0.0
15:17:55,729473.0,0.0,0.0
15:17:55,729179.0,0.0,0.0
