TimeStramp,ECG,SpO2,Respiration
11:12:58,752843.0,0.0,0.0
11:12:58,751027.0,0.0,0.0
11:12:58,750959.0,0.0,0.0
11:12:58,752866.0,0.0,0.0
11:12:58,749833.0,0.0,0.0
11:12:58,752823.0,0.0,0.0
11:12:58,750955.0,0.0,0.0
11:12:58,750975.0,0.0,0.0
11:12:58,752825.0,0.0,0.0
11:12:58,749787.0,0.0,0.0
11:12:58,752797.0,0.0,0.0
11:12:58,750891.0,0.0,0.0
11:12:58,750949.0,0.0,0.0
11:12:58,752797.0,0.0,0.0
11:12:58,749807.0,0.0,0.0
11:12:58,752809.0,0.0,0.0
11:12:58,750900.0,0.0,0.0
11:12:58,750971.0,0.0,0.0
11:12:58,752758.0,0.0,0.0
11:12:58,749779.0,0.0,0.0
11:12:58,752824.0,0.0,0.0
11:12:58,750888.0,0.0,0.0
11:12:58,751013.0,0.0,0.0
11:12:58,752763.0,0.0,0.0
11:12:58,749786.0,0.0,0.0
11:12:58,752819.0,0.0,0.0
11:12:58,750853.0,0.0,0.0
11:12:58,750993.0,0.0,0.0
11:12:58,752703.0,0.0,0.0
11:12:58,749750.0,0.0,0.0
11:12:58,752823.0,0.0,0.0
11:12:58,750819.0,0.0,0.0
11:12:58,751001.0,0.0,0.0
11:12:58,752702.0,0.0,0.0
11:12:58,749772.0,0.0,0.0
11:12:58,752841.0,0.0,0.0
11:12:58,750794.0,0.0,0.0
11:12:58,751019.0,0.0,0.0
11:12:58,752668.0,0.0,0.0
11:12:58,749741.0,0.0,0.0
11:12:58,752829.0,0.0,0.0
11:12:58,750745.0,0.0,0.0
11:12:58,751033.0,0.0,0.0
11:12:58,752674.0,0.0,0.0
11:12:58,749764.0,0.0,0.0
11:12:58,752864.0,0.0,0.0
11:12:58,750755.0,0.0,0.0
11:12:58,751023.0,0.0,0.0
11:12:58,752614.0,0.0,0.0
11:12:58,749716.0,0.0,0.0
11:12:58,752766.0,0.0,0.0
11:12:58,750620.0,0.0,0.0
11:12:58,751064.0,0.0,0.0
11:12:58,752718.0,0.0,0.0
11:12:58,749803.0,0.0,0.0
11:12:58,752908.0,0.0,0.0
11:12:58,750691.0,0.0,0.0
11:12:58,751063.0,0.0,0.0
11:12:58,752571.0,0.0,0.0
11:12:58,749744.0,0.0,0.0
11:12:58,752847.0,0.0,0.0
11:12:58,750663.0,0.0,0.0
11:12:58,751086.0,0.0,0.0
11:12:58,752584.0,0.0,0.0
11:12:58,749722.0,0.0,0.0
11:12:58,752812.0,0.0,0.0
11:12:58,750580.0,0.0,0.0
11:12:58,751077.0,0.0,0.0
11:12:58,752531.0,0.0,0.0
11:12:58,749656.0,0.0,0.0
11:12:58,752764.0,0.0,0.0
11:12:58,750521.0,0.0,0.0
11:12:58,751009.0,0.0,0.0
11:12:58,752426.0,0.0,0.0
11:12:58,749615.0,0.0,0.0
11:12:58,752759.0,0.0,0.0
11:12:58,750454.0,0.0,0.0
11:12:58,750989.0,0.0,0.0
11:12:58,752349.0,0.0,0.0
11:12:58,749596.0,0.0,0.0
11:12:58,752724.0,0.0,0.0
11:12:58,750409.0,0.0,0.0
11:12:58,751014.0,0.0,0.0
11:12:58,752351.0,0.0,0.0
11:12:58,749567.0,0.0,0.0
11:12:58,752679.0,0.0,0.0
11:12:58,750335.0,0.0,0.0
11:12:58,751026.0,0.0,0.0
11:12:58,752329.0,0.0,0.0
11:12:58,749573.0,0.0,0.0
11:12:58,752734.0,0.0,0.0
11:12:58,750373.0,0.0,0.0
11:12:58,751035.0,0.0,0.0
11:12:58,752277.0,0.0,0.0
11:12:58,749583.0,0.0,0.0
11:12:58,752753.0,0.0,0.0
11:12:59,750369.0,0.0,0.0
11:12:59,751079.0,0.0,0.0
11:12:59,752308.0,0.0,0.0
11:12:59,749627.0,0.0,0.0
11:12:59,752779.0,0.0,0.0
11:12:59,750353.0,0.0,0.0
11:12:59,751153.0,0.0,0.0
11:12:59,752339.0,0.0,0.0
11:12:59,749643.0,0.0,0.0
11:12:59,752779.0,0.0,0.0
11:12:59,750365.0,0.0,0.0
11:12:59,751164.0,0.0,0.0
11:12:59,752309.0,0.0,0.0
11:12:59,749645.0,0.0,0.0
11:12:59,752808.0,0.0,0.0
11:12:59,750356.0,0.0,0.0
11:12:59,751216.0,0.0,0.0
11:12:59,752291.0,0.0,0.0
11:12:59,749676.0,0.0,0.0
11:12:59,752866.0,0.0,0.0
11:12:59,750359.0,0.0,0.0
11:12:59,751201.0,0.0,0.0
11:12:59,752260.0,0.0,0.0
11:12:59,749678.0,0.0,0.0
11:12:59,752859.0,0.0,0.0
11:12:59,750324.0,0.0,0.0
11:12:59,751226.0,0.0,0.0
11:12:59,752236.0,0.0,0.0
11:12:59,749688.0,0.0,0.0
11:12:59,752864.0,0.0,0.0
11:12:59,750312.0,0.0,0.0
11:12:59,751273.0,0.0,0.0
11:12:59,752273.0,0.0,0.0
11:12:59,749721.0,0.0,0.0
11:12:59,752867.0,0.0,0.0
11:12:59,750283.0,0.0,0.0
11:12:59,751288.0,0.0,0.0
11:12:59,752211.0,0.0,0.0
11:12:59,749701.0,0.0,0.0
11:12:59,752879.0,0.0,0.0
11:12:59,750251.0,0.0,0.0
11:12:59,751303.0,0.0,0.0
11:12:59,752173.0,0.0,0.0
11:12:59,749684.0,0.0,0.0
11:12:59,752873.0,0.0,0.0
11:12:59,750228.0,0.0,0.0
11:12:59,751315.0,0.0,0.0
11:12:59,752174.0,0.0,0.0
11:12:59,749710.0,0.0,0.0
11:12:59,752849.0,0.0,0.0
11:12:59,750189.0,0.0,0.0
11:12:59,751323.0,0.0,0.0
11:12:59,752118.0,0.0,0.0
11:12:59,749641.0,0.0,0.0
11:12:59,752808.0,0.0,0.0
11:12:59,750134.0,0.0,0.0
11:12:59,751314.0,0.0,0.0
11:12:59,752073.0,0.0,0.0
11:12:59,749633.0,0.0,0.0
11:12:59,752795.0,0.0,0.0
11:12:59,750091.0,0.0,0.0
11:12:59,751291.0,0.0,0.0
11:12:59,751971.0,0.0,0.0
11:12:59,749565.0,0.0,0.0
11:12:59,752739.0,0.0,0.0
11:12:59,749996.0,0.0,0.0
11:12:59,751225.0,0.0,0.0
11:12:59,751886.0,0.0,0.0
11:12:59,749523.0,0.0,0.0
11:12:59,752678.0,0.0,0.0
11:12:59,749941.0,0.0,0.0
11:12:59,751189.0,0.0,0.0
11:12:59,751814.0,0.0,0.0
11:12:59,749496.0,0.0,0.0
11:12:59,752633.0,0.0,0.0
11:12:59,749863.0,0.0,0.0
11:12:59,751213.0,0.0,0.0
11:12:59,751803.0,0.0,0.0
11:12:59,749473.0,0.0,0.0
11:12:59,752609.0,0.0,0.0
11:12:59,749766.0,0.0,0.0
11:12:59,751151.0,0.0,0.0
11:12:59,751709.0,0.0,0.0
11:12:59,749426.0,0.0,0.0
11:12:59,752581.0,0.0,0.0
11:12:59,749800.0,0.0,0.0
11:12:59,751184.0,0.0,0.0
11:12:59,751699.0,0.0,0.0
11:12:59,749454.0,0.0,0.0
11:12:59,752575.0,0.0,0.0
11:12:59,749771.0,0.0,0.0
11:12:59,751219.0,0.0,0.0
11:12:59,751698.0,0.0,0.0
11:12:59,749509.0,0.0,0.0
11:12:59,752642.0,0.0,0.0
11:12:59,749825.0,0.0,0.0
11:12:59,751294.0,0.0,0.0
11:12:59,751728.0,0.0,0.0
11:12:59,749549.0,0.0,0.0
11:12:59,752659.0,0.0,0.0
11:12:59,749818.0,0.0,0.0
11:12:59,751343.0,0.0,0.0
11:12:59,751790.0,0.0,0.0
11:12:59,749625.0,0.0,0.0
11:12:59,752701.0,0.0,0.0
11:12:59,749839.0,0.0,0.0
11:12:59,751375.0,0.0,0.0
11:12:59,751816.0,0.0,0.0
11:12:59,749748.0,0.0,0.0
11:12:59,752906.0,0.0,0.0
11:12:59,749948.0,0.0,0.0
11:12:59,751465.0,0.0,0.0
11:12:59,751813.0,0.0,0.0
11:12:59,749738.0,0.0,0.0
11:12:59,752813.0,0.0,0.0
11:12:59,749909.0,0.0,0.0
11:12:59,751543.0,0.0,0.0
11:12:59,751825.0,0.0,0.0
11:12:59,749751.0,0.0,0.0
11:12:59,752823.0,0.0,0.0
11:12:59,749921.0,0.0,0.0
11:12:59,751552.0,0.0,0.0
11:12:59,751787.0,0.0,0.0
11:12:59,749713.0,0.0,0.0
11:13:00,752744.0,0.0,0.0
11:13:00,749810.0,0.0,0.0
11:13:00,751490.0,0.0,0.0
11:13:00,751689.0,0.0,0.0
11:13:00,749658.0,0.0,0.0
11:13:00,752690.0,0.0,0.0
11:13:00,749761.0,0.0,0.0
11:13:00,751451.0,0.0,0.0
11:13:00,751577.0,0.0,0.0
11:13:00,749594.0,0.0,0.0
11:13:00,752636.0,0.0,0.0
11:13:00,749664.0,0.0,0.0
11:13:00,751399.0,0.0,0.0
11:13:00,751478.0,0.0,0.0
11:13:00,749529.0,0.0,0.0
11:13:00,752600.0,0.0,0.0
11:13:00,749598.0,0.0,0.0
11:13:00,751365.0,0.0,0.0
11:13:00,751432.0,0.0,0.0
11:13:00,749533.0,0.0,0.0
11:13:00,752557.0,0.0,0.0
11:13:00,749569.0,0.0,0.0
11:13:00,751388.0,0.0,0.0
11:13:00,751394.0,0.0,0.0
11:13:00,749539.0,0.0,0.0
11:13:00,752518.0,0.0,0.0
11:13:00,749519.0,0.0,0.0
11:13:00,751403.0,0.0,0.0
11:13:00,751371.0,0.0,0.0
11:13:00,749508.0,0.0,0.0
11:13:00,752512.0,0.0,0.0
11:13:00,749494.0,0.0,0.0
11:13:00,751391.0,0.0,0.0
11:13:00,751327.0,0.0,0.0
11:13:00,749508.0,0.0,0.0
11:13:00,752466.0,0.0,0.0
11:13:00,749417.0,0.0,0.0
11:13:00,751341.0,0.0,0.0
11:13:00,751224.0,0.0,0.0
11:13:00,749443.0,0.0,0.0
11:13:00,752372.0,0.0,0.0
11:13:00,749347.0,0.0,0.0
11:13:00,751315.0,0.0,0.0
11:13:00,751181.0,0.0,0.0
11:13:00,749439.0,0.0,0.0
11:13:00,752367.0,0.0,0.0
11:13:00,749326.0,0.0,0.0
11:13:00,751303.0,0.0,0.0
11:13:00,751131.0,0.0,0.0
11:13:00,749411.0,0.0,0.0
11:13:00,752350.0,0.0,0.0
11:13:00,749317.0,0.0,0.0
11:13:00,751276.0,0.0,0.0
11:13:00,751055.0,0.0,0.0
11:13:00,749410.0,0.0,0.0
11:13:00,752314.0,0.0,0.0
11:13:00,749248.0,0.0,0.0
11:13:00,751221.0,0.0,0.0
11:13:00,750990.0,0.0,0.0
11:13:00,749391.0,0.0,0.0
11:13:00,752294.0,0.0,0.0
11:13:00,749211.0,0.0,0.0
11:13:00,751268.0,0.0,0.0
11:13:00,750928.0,0.0,0.0
11:13:00,749339.0,0.0,0.0
11:13:00,752238.0,0.0,0.0
11:13:00,749149.0,0.0,0.0
11:13:00,751254.0,0.0,0.0
11:13:00,750924.0,0.0,0.0
11:13:00,749352.0,0.0,0.0
11:13:00,752227.0,0.0,0.0
11:13:00,749116.0,0.0,0.0
11:13:00,751231.0,0.0,0.0
11:13:00,750839.0,0.0,0.0
11:13:00,749328.0,0.0,0.0
11:13:00,752200.0,0.0,0.0
11:13:00,749083.0,0.0,0.0
11:13:00,751233.0,0.0,0.0
11:13:00,750816.0,0.0,0.0
11:13:00,749319.0,0.0,0.0
11:13:00,752156.0,0.0,0.0
11:13:00,749076.0,0.0,0.0
11:13:00,751251.0,0.0,0.0
11:13:00,750793.0,0.0,0.0
11:13:00,749318.0,0.0,0.0
11:13:00,752144.0,0.0,0.0
11:13:00,749012.0,0.0,0.0
11:13:00,751229.0,0.0,0.0
11:13:00,750748.0,0.0,0.0
11:13:00,749324.0,0.0,0.0
11:13:00,752104.0,0.0,0.0
11:13:00,749018.0,0.0,0.0
11:13:00,751245.0,0.0,0.0
11:13:00,750667.0,0.0,0.0
11:13:00,749327.0,0.0,0.0
11:13:00,752115.0,0.0,0.0
11:13:00,748987.0,0.0,0.0
11:13:00,751276.0,0.0,0.0
11:13:00,750716.0,0.0,0.0
11:13:00,749380.0,0.0,0.0
11:13:00,752170.0,0.0,0.0
11:13:00,749006.0,0.0,0.0
11:13:00,751305.0,0.0,0.0
11:13:00,750724.0,0.0,0.0
11:13:00,749414.0,0.0,0.0
11:13:00,752133.0,0.0,0.0
11:13:00,749041.0,0.0,0.0
11:13:00,751398.0,0.0,0.0
11:13:00,750756.0,0.0,0.0
11:13:00,749465.0,0.0,0.0
11:13:00,752191.0,0.0,0.0
11:13:00,749036.0,0.0,0.0
11:13:00,751430.0,0.0,0.0
11:13:00,750771.0,0.0,0.0
11:13:00,749514.0,0.0,0.0
11:13:00,752229.0,0.0,0.0
11:13:00,749090.0,0.0,0.0
11:13:00,751479.0,0.0,0.0
11:13:00,750774.0,0.0,0.0
11:13:00,749573.0,0.0,0.0
11:13:00,752243.0,0.0,0.0
11:13:00,749102.0,0.0,0.0
11:13:00,751502.0,0.0,0.0
11:13:00,750718.0,0.0,0.0
11:13:00,749573.0,0.0,0.0
11:13:01,752270.0,0.0,0.0
11:13:01,749121.0,0.0,0.0
11:13:01,751533.0,0.0,0.0
11:13:01,750723.0,0.0,0.0
11:13:01,749618.0,0.0,0.0
11:13:01,752248.0,0.0,0.0
11:13:01,749111.0,0.0,0.0
11:13:01,751510.0,0.0,0.0
11:13:01,750655.0,0.0,0.0
11:13:01,749651.0,0.0,0.0
11:13:01,752356.0,0.0,0.0
11:13:01,749173.0,0.0,0.0
11:13:01,751667.0,0.0,0.0
11:13:01,750770.0,0.0,0.0
11:13:01,749718.0,0.0,0.0
11:13:01,752294.0,0.0,0.0
11:13:01,749154.0,0.0,0.0
11:13:01,751642.0,0.0,0.0
11:13:01,750714.0,0.0,0.0
11:13:01,749690.0,0.0,0.0
11:13:01,752268.0,0.0,0.0
11:13:01,749122.0,0.0,0.0
11:13:01,751666.0,0.0,0.0
11:13:01,750710.0,0.0,0.0
11:13:01,749724.0,0.0,0.0
11:13:01,752252.0,0.0,0.0
11:13:01,749086.0,0.0,0.0
11:13:01,751646.0,0.0,0.0
11:13:01,750618.0,0.0,0.0
11:13:01,749641.0,0.0,0.0
11:13:01,752164.0,0.0,0.0
11:13:01,749001.0,0.0,0.0
11:13:01,751613.0,0.0,0.0
11:13:01,750525.0,0.0,0.0
11:13:01,749612.0,0.0,0.0
11:13:01,752104.0,0.0,0.0
11:13:01,748961.0,0.0,0.0
11:13:01,751589.0,0.0,0.0
11:13:01,750500.0,0.0,0.0
11:13:01,749599.0,0.0,0.0
11:13:01,752060.0,0.0,0.0
11:13:01,748904.0,0.0,0.0
11:13:01,751565.0,0.0,0.0
11:13:01,750441.0,0.0,0.0
11:13:01,749650.0,0.0,0.0
11:13:01,752081.0,0.0,0.0
11:13:01,748917.0,0.0,0.0
11:13:01,751551.0,0.0,0.0
11:13:01,750402.0,0.0,0.0
11:13:01,749648.0,0.0,0.0
11:13:01,752063.0,0.0,0.0
11:13:01,748888.0,0.0,0.0
11:13:01,751569.0,0.0,0.0
11:13:01,750388.0,0.0,0.0
11:13:01,749670.0,0.0,0.0
11:13:01,752064.0,0.0,0.0
11:13:01,748941.0,0.0,0.0
11:13:01,751642.0,0.0,0.0
11:13:01,750409.0,0.0,0.0
11:13:01,749684.0,0.0,0.0
11:13:01,752071.0,0.0,0.0
11:13:01,748906.0,0.0,0.0
11:13:01,751620.0,0.0,0.0
11:13:01,750350.0,0.0,0.0
11:13:01,749700.0,0.0,0.0
11:13:01,752004.0,0.0,0.0
11:13:01,748897.0,0.0,0.0
11:13:01,751636.0,0.0,0.0
11:13:01,750306.0,0.0,0.0
11:13:01,749719.0,0.0,0.0
11:13:01,752063.0,0.0,0.0
11:13:01,748928.0,0.0,0.0
11:13:01,751693.0,0.0,0.0
11:13:01,750304.0,0.0,0.0
11:13:01,749712.0,0.0,0.0
11:13:01,752006.0,0.0,0.0
11:13:01,748903.0,0.0,0.0
11:13:01,751693.0,0.0,0.0
11:13:01,750278.0,0.0,0.0
11:13:01,749761.0,0.0,0.0
11:13:01,752029.0,0.0,0.0
11:13:01,748884.0,0.0,0.0
11:13:01,751679.0,0.0,0.0
11:13:01,750254.0,0.0,0.0
11:13:01,749797.0,0.0,0.0
11:13:01,752026.0,0.0,0.0
11:13:01,748935.0,0.0,0.0
11:13:01,751749.0,0.0,0.0
11:13:01,750281.0,0.0,0.0
11:13:01,749823.0,0.0,0.0
11:13:01,751988.0,0.0,0.0
11:13:01,748884.0,0.0,0.0
11:13:01,751722.0,0.0,0.0
11:13:01,750236.0,0.0,0.0
11:13:01,749838.0,0.0,0.0
11:13:01,752008.0,0.0,0.0
11:13:01,748927.0,0.0,0.0
11:13:01,751777.0,0.0,0.0
11:13:01,750223.0,0.0,0.0
11:13:01,749839.0,0.0,0.0
11:13:01,751974.0,0.0,0.0
11:13:01,748905.0,0.0,0.0
11:13:01,751773.0,0.0,0.0
11:13:01,750199.0,0.0,0.0
11:13:01,749887.0,0.0,0.0
11:13:01,752009.0,0.0,0.0
11:13:01,748935.0,0.0,0.0
11:13:01,751804.0,0.0,0.0
11:13:01,750211.0,0.0,0.0
11:13:01,749934.0,0.0,0.0
11:13:01,752010.0,0.0,0.0
11:13:01,748906.0,0.0,0.0
11:13:01,751814.0,0.0,0.0
11:13:01,750138.0,0.0,0.0
11:13:01,749916.0,0.0,0.0
11:13:01,751979.0,0.0,0.0
11:13:01,748896.0,0.0,0.0
11:13:01,751816.0,0.0,0.0
11:13:01,750154.0,0.0,0.0
11:13:01,749943.0,0.0,0.0
11:13:01,751966.0,0.0,0.0
11:13:01,748893.0,0.0,0.0
11:13:01,751832.0,0.0,0.0
11:13:01,750124.0,0.0,0.0
11:13:01,749938.0,0.0,0.0
11:13:02,751913.0,0.0,0.0
11:13:02,748898.0,0.0,0.0
11:13:02,751855.0,0.0,0.0
11:13:02,750098.0,0.0,0.0
11:13:02,749958.0,0.0,0.0
11:13:02,751938.0,0.0,0.0
11:13:02,748918.0,0.0,0.0
11:13:02,751855.0,0.0,0.0
11:13:02,750069.0,0.0,0.0
11:13:02,749989.0,0.0,0.0
11:13:02,751926.0,0.0,0.0
11:13:02,748923.0,0.0,0.0
11:13:02,751894.0,0.0,0.0
11:13:02,750069.0,0.0,0.0
11:13:02,750023.0,0.0,0.0
11:13:02,751873.0,0.0,0.0
11:13:02,748891.0,0.0,0.0
11:13:02,751902.0,0.0,0.0
11:13:02,750063.0,0.0,0.0
11:13:02,750028.0,0.0,0.0
11:13:02,751868.0,0.0,0.0
11:13:02,748886.0,0.0,0.0
11:13:02,751911.0,0.0,0.0
11:13:02,750015.0,0.0,0.0
11:13:02,750053.0,0.0,0.0
11:13:02,751876.0,0.0,0.0
11:13:02,748874.0,0.0,0.0
11:13:02,751823.0,0.0,0.0
11:13:02,749939.0,0.0,0.0
11:13:02,750074.0,0.0,0.0
11:13:02,751937.0,0.0,0.0
11:13:02,748953.0,0.0,0.0
11:13:02,751985.0,0.0,0.0
11:13:02,750015.0,0.0,0.0
11:13:02,750118.0,0.0,0.0
11:13:02,751868.0,0.0,0.0
11:13:02,748901.0,0.0,0.0
11:13:02,751913.0,0.0,0.0
11:13:02,749980.0,0.0,0.0
11:13:02,750126.0,0.0,0.0
11:13:02,751833.0,0.0,0.0
11:13:02,748919.0,0.0,0.0
11:13:02,751959.0,0.0,0.0
11:13:02,749919.0,0.0,0.0
11:13:02,750108.0,0.0,0.0
11:13:02,751778.0,0.0,0.0
11:13:02,748819.0,0.0,0.0
11:13:02,751871.0,0.0,0.0
11:13:02,749806.0,0.0,0.0
11:13:02,750018.0,0.0,0.0
11:13:02,751658.0,0.0,0.0
11:13:02,748739.0,0.0,0.0
11:13:02,751794.0,0.0,0.0
11:13:02,749734.0,0.0,0.0
11:13:02,750020.0,0.0,0.0
11:13:02,751627.0,0.0,0.0
11:13:02,748728.0,0.0,0.0
11:13:02,751793.0,0.0,0.0
11:13:02,749707.0,0.0,0.0
11:13:02,750007.0,0.0,0.0
11:13:02,751579.0,0.0,0.0
11:13:02,748688.0,0.0,0.0
11:13:02,751783.0,0.0,0.0
11:13:02,749675.0,0.0,0.0
11:13:02,750004.0,0.0,0.0
11:13:02,751559.0,0.0,0.0
11:13:02,748684.0,0.0,0.0
11:13:02,751794.0,0.0,0.0
11:13:02,749634.0,0.0,0.0
11:13:02,750016.0,0.0,0.0
11:13:02,751527.0,0.0,0.0
11:13:02,748689.0,0.0,0.0
11:13:02,751803.0,0.0,0.0
11:13:02,749602.0,0.0,0.0
11:13:02,750028.0,0.0,0.0
11:13:02,751537.0,0.0,0.0
11:13:02,748667.0,0.0,0.0
11:13:02,751741.0,0.0,0.0
11:13:02,749585.0,0.0,0.0
11:13:02,750041.0,0.0,0.0
11:13:02,751481.0,0.0,0.0
11:13:02,748633.0,0.0,0.0
11:13:02,751753.0,0.0,0.0
11:13:02,749538.0,0.0,0.0
11:13:02,750012.0,0.0,0.0
11:13:02,751464.0,0.0,0.0
11:13:02,748677.0,0.0,0.0
11:13:02,751771.0,0.0,0.0
11:13:02,749508.0,0.0,0.0
11:13:02,750049.0,0.0,0.0
11:13:02,751458.0,0.0,0.0
11:13:02,748658.0,0.0,0.0
11:13:02,751773.0,0.0,0.0
11:13:02,749503.0,0.0,0.0
11:13:02,750075.0,0.0,0.0
11:13:02,751394.0,0.0,0.0
11:13:02,748619.0,0.0,0.0
11:13:02,751759.0,0.0,0.0
11:13:02,749455.0,0.0,0.0
11:13:02,750068.0,0.0,0.0
11:13:02,751386.0,0.0,0.0
11:13:02,748634.0,0.0,0.0
11:13:02,751780.0,0.0,0.0
11:13:02,749446.0,0.0,0.0
11:13:02,750066.0,0.0,0.0
11:13:02,751389.0,0.0,0.0
11:13:02,748657.0,0.0,0.0
11:13:02,751789.0,0.0,0.0
11:13:02,749429.0,0.0,0.0
11:13:02,750103.0,0.0,0.0
11:13:02,751366.0,0.0,0.0
11:13:02,748642.0,0.0,0.0
11:13:02,751765.0,0.0,0.0
11:13:02,749377.0,0.0,0.0
11:13:02,750091.0,0.0,0.0
11:13:02,751330.0,0.0,0.0
11:13:02,748634.0,0.0,0.0
11:13:02,751797.0,0.0,0.0
11:13:02,749427.0,0.0,0.0
11:13:02,750172.0,0.0,0.0
11:13:02,751329.0,0.0,0.0
11:13:02,748641.0,0.0,0.0
11:13:02,751808.0,0.0,0.0
11:13:02,749364.0,0.0,0.0
11:13:02,750142.0,0.0,0.0
11:13:02,751310.0,0.0,0.0
11:13:03,748686.0,0.0,0.0
11:13:03,751851.0,0.0,0.0
11:13:03,749391.0,0.0,0.0
11:13:03,750183.0,0.0,0.0
11:13:03,751300.0,0.0,0.0
11:13:03,748680.0,0.0,0.0
11:13:03,751861.0,0.0,0.0
11:13:03,749346.0,0.0,0.0
11:13:03,750209.0,0.0,0.0
11:13:03,751302.0,0.0,0.0
11:13:03,748670.0,0.0,0.0
11:13:03,751817.0,0.0,0.0
11:13:03,749310.0,0.0,0.0
11:13:03,750196.0,0.0,0.0
11:13:03,751248.0,0.0,0.0
11:13:03,748676.0,0.0,0.0
11:13:03,751859.0,0.0,0.0
11:13:03,749326.0,0.0,0.0
11:13:03,750236.0,0.0,0.0
11:13:03,751237.0,0.0,0.0
11:13:03,748669.0,0.0,0.0
11:13:03,751816.0,0.0,0.0
11:13:03,749282.0,0.0,0.0
11:13:03,750268.0,0.0,0.0
11:13:03,751214.0,0.0,0.0
11:13:03,748643.0,0.0,0.0
11:13:03,751811.0,0.0,0.0
11:13:03,749273.0,0.0,0.0
11:13:03,750286.0,0.0,0.0
11:13:03,751181.0,0.0,0.0
11:13:03,748661.0,0.0,0.0
11:13:03,751814.0,0.0,0.0
11:13:03,749198.0,0.0,0.0
11:13:03,750239.0,0.0,0.0
11:13:03,751178.0,0.0,0.0
11:13:03,748661.0,0.0,0.0
11:13:03,751831.0,0.0,0.0
11:13:03,749212.0,0.0,0.0
11:13:03,750274.0,0.0,0.0
11:13:03,751131.0,0.0,0.0
11:13:03,748640.0,0.0,0.0
11:13:03,751823.0,0.0,0.0
11:13:03,749179.0,0.0,0.0
11:13:03,750233.0,0.0,0.0
11:13:03,751073.0,0.0,0.0
11:13:03,748633.0,0.0,0.0
11:13:03,751790.0,0.0,0.0
11:13:03,749201.0,0.0,0.0
11:13:03,750386.0,0.0,0.0
11:13:03,751165.0,0.0,0.0
11:13:03,748678.0,0.0,0.0
11:13:03,751786.0,0.0,0.0
11:13:03,749118.0,0.0,0.0
11:13:03,750246.0,0.0,0.0
11:13:03,751019.0,0.0,0.0
11:13:03,748623.0,0.0,0.0
11:13:03,751769.0,0.0,0.0
11:13:03,749096.0,0.0,0.0
11:13:03,750286.0,0.0,0.0
11:13:03,751009.0,0.0,0.0
11:13:03,748628.0,0.0,0.0
11:13:03,751742.0,0.0,0.0
11:13:03,749014.0,0.0,0.0
11:13:03,750249.0,0.0,0.0
11:13:03,750944.0,0.0,0.0
11:13:03,748564.0,0.0,0.0
11:13:03,751706.0,0.0,0.0
11:13:03,748948.0,0.0,0.0
11:13:03,750191.0,0.0,0.0
11:13:03,750819.0,0.0,0.0
11:13:03,748496.0,0.0,0.0
11:13:03,751590.0,0.0,0.0
11:13:03,748860.0,0.0,0.0
11:13:03,750146.0,0.0,0.0
11:13:03,750756.0,0.0,0.0
11:13:03,748474.0,0.0,0.0
11:13:03,751587.0,0.0,0.0
11:13:03,748786.0,0.0,0.0
11:13:03,750109.0,0.0,0.0
11:13:03,750674.0,0.0,0.0
11:13:03,748421.0,0.0,0.0
11:13:03,751511.0,0.0,0.0
11:13:03,748734.0,0.0,0.0
11:13:03,750114.0,0.0,0.0
11:13:03,750645.0,0.0,0.0
11:13:03,748393.0,0.0,0.0
11:13:03,751504.0,0.0,0.0
11:13:03,748716.0,0.0,0.0
11:13:03,750139.0,0.0,0.0
11:13:03,750636.0,0.0,0.0
11:13:03,748389.0,0.0,0.0
11:13:03,751541.0,0.0,0.0
11:13:03,748696.0,0.0,0.0
11:13:03,750109.0,0.0,0.0
11:13:03,750545.0,0.0,0.0
11:13:03,748373.0,0.0,0.0
11:13:03,751461.0,0.0,0.0
11:13:03,748641.0,0.0,0.0
11:13:03,750126.0,0.0,0.0
11:13:03,750545.0,0.0,0.0
11:13:03,748359.0,0.0,0.0
11:13:03,751469.0,0.0,0.0
11:13:03,748597.0,0.0,0.0
11:13:03,750099.0,0.0,0.0
11:13:03,750508.0,0.0,0.0
11:13:03,748364.0,0.0,0.0
11:13:03,751470.0,0.0,0.0
11:13:03,748608.0,0.0,0.0
11:13:03,750141.0,0.0,0.0
11:13:03,750473.0,0.0,0.0
11:13:03,748351.0,0.0,0.0
11:13:03,751448.0,0.0,0.0
11:13:03,748544.0,0.0,0.0
11:13:03,750106.0,0.0,0.0
11:13:03,750406.0,0.0,0.0
11:13:03,748311.0,0.0,0.0
11:13:03,751396.0,0.0,0.0
11:13:03,748493.0,0.0,0.0
11:13:03,750089.0,0.0,0.0
11:13:03,750359.0,0.0,0.0
11:13:03,748307.0,0.0,0.0
11:13:03,751345.0,0.0,0.0
11:13:03,748461.0,0.0,0.0
11:13:03,750091.0,0.0,0.0
11:13:04,750328.0,0.0,0.0
11:13:04,748288.0,0.0,0.0
11:13:04,751357.0,0.0,0.0
11:13:04,748446.0,0.0,0.0
11:13:04,750077.0,0.0,0.0
11:13:04,750321.0,0.0,0.0
11:13:04,748308.0,0.0,0.0
11:13:04,751335.0,0.0,0.0
11:13:04,748374.0,0.0,0.0
11:13:04,750096.0,0.0,0.0
11:13:04,750279.0,0.0,0.0
11:13:04,748287.0,0.0,0.0
11:13:04,751306.0,0.0,0.0
11:13:04,748364.0,0.0,0.0
11:13:04,750074.0,0.0,0.0
11:13:04,750196.0,0.0,0.0
11:13:04,748240.0,0.0,0.0
11:13:04,751272.0,0.0,0.0
11:13:04,748291.0,0.0,0.0
11:13:04,750053.0,0.0,0.0
11:13:04,750154.0,0.0,0.0
11:13:04,748241.0,0.0,0.0
11:13:04,751291.0,0.0,0.0
11:13:04,748294.0,0.0,0.0
11:13:04,750079.0,0.0,0.0
11:13:04,750144.0,0.0,0.0
11:13:04,748228.0,0.0,0.0
11:13:04,751231.0,0.0,0.0
11:13:04,748229.0,0.0,0.0
11:13:04,750059.0,0.0,0.0
11:13:04,750096.0,0.0,0.0
11:13:04,748222.0,0.0,0.0
11:13:04,751194.0,0.0,0.0
11:13:04,748216.0,0.0,0.0
11:13:04,750054.0,0.0,0.0
11:13:04,750050.0,0.0,0.0
11:13:04,748221.0,0.0,0.0
11:13:04,751182.0,0.0,0.0
11:13:04,748187.0,0.0,0.0
11:13:04,750074.0,0.0,0.0
11:13:04,750003.0,0.0,0.0
11:13:04,748220.0,0.0,0.0
11:13:04,751176.0,0.0,0.0
11:13:04,748134.0,0.0,0.0
11:13:04,750016.0,0.0,0.0
11:13:04,749945.0,0.0,0.0
11:13:04,748161.0,0.0,0.0
11:13:04,751148.0,0.0,0.0
11:13:04,748144.0,0.0,0.0
11:13:04,750044.0,0.0,0.0
11:13:04,749934.0,0.0,0.0
11:13:04,748161.0,0.0,0.0
11:13:04,751131.0,0.0,0.0
11:13:04,748083.0,0.0,0.0
11:13:04,750054.0,0.0,0.0
11:13:04,749912.0,0.0,0.0
11:13:04,748184.0,0.0,0.0
11:13:04,751116.0,0.0,0.0
11:13:04,748085.0,0.0,0.0
11:13:04,750077.0,0.0,0.0
11:13:04,749881.0,0.0,0.0
11:13:04,748181.0,0.0,0.0
11:13:04,751095.0,0.0,0.0
11:13:04,748027.0,0.0,0.0
11:13:04,750051.0,0.0,0.0
11:13:04,749816.0,0.0,0.0
11:13:04,748109.0,0.0,0.0
11:13:04,751028.0,0.0,0.0
11:13:04,748043.0,0.0,0.0
11:13:04,750124.0,0.0,0.0
11:13:04,749870.0,0.0,0.0
11:13:04,748183.0,0.0,0.0
11:13:04,751041.0,0.0,0.0
11:13:04,748007.0,0.0,0.0
11:13:04,750054.0,0.0,0.0
11:13:04,749748.0,0.0,0.0
11:13:04,748140.0,0.0,0.0
11:13:04,751045.0,0.0,0.0
11:13:04,747968.0,0.0,0.0
11:13:04,750033.0,0.0,0.0
11:13:04,749701.0,0.0,0.0
11:13:04,748116.0,0.0,0.0
11:13:04,750951.0,0.0,0.0
11:13:04,747864.0,0.0,0.0
11:13:04,749971.0,0.0,0.0
11:13:04,749621.0,0.0,0.0
11:13:04,748093.0,0.0,0.0
11:13:04,750924.0,0.0,0.0
11:13:04,747804.0,0.0,0.0
11:13:04,749942.0,0.0,0.0
11:13:04,749519.0,0.0,0.0
11:13:04,748006.0,0.0,0.0
11:13:04,750870.0,0.0,0.0
11:13:04,747741.0,0.0,0.0
11:13:04,749896.0,0.0,0.0
11:13:04,749466.0,0.0,0.0
11:13:04,747971.0,0.0,0.0
11:13:04,750771.0,0.0,0.0
11:13:04,747669.0,0.0,0.0
11:13:04,749867.0,0.0,0.0
11:13:04,749380.0,0.0,0.0
11:13:04,747940.0,0.0,0.0
11:13:04,750749.0,0.0,0.0
11:13:04,747627.0,0.0,0.0
11:13:04,749826.0,0.0,0.0
11:13:04,749326.0,0.0,0.0
11:13:04,747933.0,0.0,0.0
11:13:04,750700.0,0.0,0.0
11:13:04,747584.0,0.0,0.0
11:13:04,749825.0,0.0,0.0
11:13:04,749274.0,0.0,0.0
11:13:04,747876.0,0.0,0.0
11:13:04,750651.0,0.0,0.0
11:13:04,747525.0,0.0,0.0
11:13:04,749794.0,0.0,0.0
11:13:04,749225.0,0.0,0.0
11:13:04,747875.0,0.0,0.0
11:13:04,750658.0,0.0,0.0
11:13:04,747522.0,0.0,0.0
11:13:04,749794.0,0.0,0.0
11:13:04,749174.0,0.0,0.0
11:13:04,747858.0,0.0,0.0
11:13:04,750613.0,0.0,0.0
11:13:04,747503.0,0.0,0.0
11:13:04,749787.0,0.0,0.0
11:13:05,749130.0,0.0,0.0
11:13:05,747850.0,0.0,0.0
11:13:05,750576.0,0.0,0.0
11:13:05,747420.0,0.0,0.0
11:13:05,749753.0,0.0,0.0
11:13:05,749051.0,0.0,0.0
11:13:05,747831.0,0.0,0.0
11:13:05,750526.0,0.0,0.0
11:13:05,747329.0,0.0,0.0
11:13:05,749710.0,0.0,0.0
11:13:05,748978.0,0.0,0.0
11:13:05,747758.0,0.0,0.0
11:13:05,750449.0,0.0,0.0
11:13:05,747286.0,0.0,0.0
11:13:05,749639.0,0.0,0.0
11:13:05,748889.0,0.0,0.0
11:13:05,747718.0,0.0,0.0
11:13:05,750376.0,0.0,0.0
11:13:05,747230.0,0.0,0.0
11:13:05,749659.0,0.0,0.0
11:13:05,748825.0,0.0,0.0
11:13:05,747673.0,0.0,0.0
11:13:05,750328.0,0.0,0.0
11:13:05,747178.0,0.0,0.0
11:13:05,749611.0,0.0,0.0
11:13:05,748766.0,0.0,0.0
11:13:05,747649.0,0.0,0.0
11:13:05,750291.0,0.0,0.0
11:13:05,747158.0,0.0,0.0
11:13:05,749614.0,0.0,0.0
11:13:05,748739.0,0.0,0.0
11:13:05,747671.0,0.0,0.0
11:13:05,750269.0,0.0,0.0
11:13:05,747116.0,0.0,0.0
11:13:05,749578.0,0.0,0.0
11:13:05,748664.0,0.0,0.0
11:13:05,747648.0,0.0,0.0
11:13:05,750229.0,0.0,0.0
11:13:05,747061.0,0.0,0.0
11:13:05,749564.0,0.0,0.0
11:13:05,748659.0,0.0,0.0
11:13:05,747673.0,0.0,0.0
11:13:05,750262.0,0.0,0.0
11:13:05,747099.0,0.0,0.0
11:13:05,749614.0,0.0,0.0
11:13:05,748658.0,0.0,0.0
11:13:05,747693.0,0.0,0.0
11:13:05,750188.0,0.0,0.0
11:13:05,747066.0,0.0,0.0
11:13:05,749604.0,0.0,0.0
11:13:05,748581.0,0.0,0.0
11:13:05,747649.0,0.0,0.0
11:13:05,750178.0,0.0,0.0
11:13:05,747026.0,0.0,0.0
11:13:05,749598.0,0.0,0.0
11:13:05,748565.0,0.0,0.0
11:13:05,747644.0,0.0,0.0
11:13:05,750154.0,0.0,0.0
11:13:05,747003.0,0.0,0.0
11:13:05,749588.0,0.0,0.0
11:13:05,748521.0,0.0,0.0
11:13:05,747633.0,0.0,0.0
11:13:05,750083.0,0.0,0.0
11:13:05,746974.0,0.0,0.0
11:13:05,749596.0,0.0,0.0
11:13:05,748472.0,0.0,0.0
11:13:05,747627.0,0.0,0.0
11:13:05,750094.0,0.0,0.0
11:13:05,746941.0,0.0,0.0
11:13:05,749591.0,0.0,0.0
11:13:05,748456.0,0.0,0.0
11:13:05,747624.0,0.0,0.0
11:13:05,750055.0,0.0,0.0
11:13:05,746938.0,0.0,0.0
11:13:05,749583.0,0.0,0.0
11:13:05,748403.0,0.0,0.0
11:13:05,747660.0,0.0,0.0
11:13:05,750052.0,0.0,0.0
11:13:05,746894.0,0.0,0.0
11:13:05,749568.0,0.0,0.0
11:13:05,748356.0,0.0,0.0
11:13:05,747623.0,0.0,0.0
11:13:05,750017.0,0.0,0.0
11:13:05,746864.0,0.0,0.0
11:13:05,749570.0,0.0,0.0
11:13:05,748348.0,0.0,0.0
11:13:05,747645.0,0.0,0.0
11:13:05,750022.0,0.0,0.0
11:13:05,746879.0,0.0,0.0
11:13:05,749601.0,0.0,0.0
11:13:05,748333.0,0.0,0.0
11:13:05,747676.0,0.0,0.0
11:13:05,749970.0,0.0,0.0
11:13:05,746832.0,0.0,0.0
11:13:05,749566.0,0.0,0.0
11:13:05,748293.0,0.0,0.0
11:13:05,747706.0,0.0,0.0
11:13:05,750023.0,0.0,0.0
11:13:05,746825.0,0.0,0.0
11:13:05,749553.0,0.0,0.0
11:13:05,748223.0,0.0,0.0
11:13:05,747658.0,0.0,0.0
11:13:05,749964.0,0.0,0.0
11:13:05,746836.0,0.0,0.0
11:13:05,749606.0,0.0,0.0
11:13:05,748236.0,0.0,0.0
11:13:05,747677.0,0.0,0.0
11:13:05,749921.0,0.0,0.0
11:13:05,746813.0,0.0,0.0
11:13:05,749569.0,0.0,0.0
11:13:05,748149.0,0.0,0.0
11:13:05,747621.0,0.0,0.0
11:13:05,749849.0,0.0,0.0
11:13:05,746745.0,0.0,0.0
11:13:05,749521.0,0.0,0.0
11:13:05,748072.0,0.0,0.0
11:13:05,747588.0,0.0,0.0
11:13:05,749749.0,0.0,0.0
11:13:05,746663.0,0.0,0.0
11:13:05,749451.0,0.0,0.0
11:13:05,747953.0,0.0,0.0
11:13:05,747531.0,0.0,0.0
11:13:05,749697.0,0.0,0.0
11:13:05,746578.0,0.0,0.0
11:13:05,749397.0,0.0,0.0
11:13:06,747888.0,0.0,0.0
11:13:06,747514.0,0.0,0.0
11:13:06,749629.0,0.0,0.0
11:13:06,746561.0,0.0,0.0
11:13:06,749367.0,0.0,0.0
11:13:06,747836.0,0.0,0.0
11:13:06,747474.0,0.0,0.0
11:13:06,749593.0,0.0,0.0
11:13:06,746509.0,0.0,0.0
11:13:06,749359.0,0.0,0.0
11:13:06,747813.0,0.0,0.0
11:13:06,747483.0,0.0,0.0
11:13:06,749581.0,0.0,0.0
11:13:06,746514.0,0.0,0.0
11:13:06,749404.0,0.0,0.0
11:13:06,747801.0,0.0,0.0
11:13:06,747495.0,0.0,0.0
11:13:06,749539.0,0.0,0.0
11:13:06,746507.0,0.0,0.0
11:13:06,749401.0,0.0,0.0
11:13:06,747750.0,0.0,0.0
11:13:06,747504.0,0.0,0.0
11:13:06,749536.0,0.0,0.0
11:13:06,746479.0,0.0,0.0
11:13:06,749409.0,0.0,0.0
11:13:06,747726.0,0.0,0.0
11:13:06,747512.0,0.0,0.0
11:13:06,749560.0,0.0,0.0
11:13:06,746494.0,0.0,0.0
11:13:06,749392.0,0.0,0.0
11:13:06,747697.0,0.0,0.0
11:13:06,747526.0,0.0,0.0
11:13:06,749519.0,0.0,0.0
11:13:06,746472.0,0.0,0.0
11:13:06,749426.0,0.0,0.0
11:13:06,747688.0,0.0,0.0
11:13:06,747514.0,0.0,0.0
11:13:06,749467.0,0.0,0.0
11:13:06,746413.0,0.0,0.0
11:13:06,749386.0,0.0,0.0
11:13:06,747642.0,0.0,0.0
11:13:06,747523.0,0.0,0.0
11:13:06,749429.0,0.0,0.0
11:13:06,746418.0,0.0,0.0
11:13:06,749396.0,0.0,0.0
11:13:06,747606.0,0.0,0.0
11:13:06,747529.0,0.0,0.0
11:13:06,749443.0,0.0,0.0
11:13:06,746401.0,0.0,0.0
11:13:06,749418.0,0.0,0.0
11:13:06,747600.0,0.0,0.0
11:13:06,747548.0,0.0,0.0
11:13:06,749448.0,0.0,0.0
11:13:06,746445.0,0.0,0.0
11:13:06,749419.0,0.0,0.0
11:13:06,747548.0,0.0,0.0
11:13:06,747567.0,0.0,0.0
11:13:06,749429.0,0.0,0.0
11:13:06,746419.0,0.0,0.0
11:13:06,749444.0,0.0,0.0
11:13:06,747523.0,0.0,0.0
11:13:06,747524.0,0.0,0.0
11:13:06,749348.0,0.0,0.0
11:13:06,746381.0,0.0,0.0
11:13:06,749388.0,0.0,0.0
11:13:06,747504.0,0.0,0.0
11:13:06,747569.0,0.0,0.0
11:13:06,749352.0,0.0,0.0
11:13:06,746383.0,0.0,0.0
11:13:06,749403.0,0.0,0.0
11:13:06,747446.0,0.0,0.0
11:13:06,747559.0,0.0,0.0
11:13:06,749301.0,0.0,0.0
11:13:06,746356.0,0.0,0.0
11:13:06,749425.0,0.0,0.0
11:13:06,747443.0,0.0,0.0
11:13:06,747601.0,0.0,0.0
11:13:06,749306.0,0.0,0.0
11:13:06,746363.0,0.0,0.0
11:13:06,749424.0,0.0,0.0
11:13:06,747403.0,0.0,0.0
11:13:06,747594.0,0.0,0.0
11:13:06,749264.0,0.0,0.0
11:13:06,746344.0,0.0,0.0
11:13:06,749430.0,0.0,0.0
11:13:06,747381.0,0.0,0.0
11:13:06,747595.0,0.0,0.0
11:13:06,749232.0,0.0,0.0
11:13:06,746340.0,0.0,0.0
11:13:06,749449.0,0.0,0.0
11:13:06,747351.0,0.0,0.0
11:13:06,747607.0,0.0,0.0
11:13:06,749238.0,0.0,0.0
11:13:06,746307.0,0.0,0.0
11:13:06,749388.0,0.0,0.0
11:13:06,747316.0,0.0,0.0
11:13:06,747621.0,0.0,0.0
11:13:06,749230.0,0.0,0.0
11:13:06,746336.0,0.0,0.0
11:13:06,749430.0,0.0,0.0
11:13:06,747268.0,0.0,0.0
11:13:06,747611.0,0.0,0.0
11:13:06,749184.0,0.0,0.0
11:13:06,746299.0,0.0,0.0
11:13:06,749403.0,0.0,0.0
11:13:06,747265.0,0.0,0.0
11:13:06,747656.0,0.0,0.0
11:13:06,749172.0,0.0,0.0
11:13:06,746288.0,0.0,0.0
11:13:06,749392.0,0.0,0.0
11:13:06,747185.0,0.0,0.0
11:13:06,747603.0,0.0,0.0
11:13:06,749083.0,0.0,0.0
11:13:06,746232.0,0.0,0.0
11:13:06,749310.0,0.0,0.0
11:13:06,747113.0,0.0,0.0
11:13:06,747560.0,0.0,0.0
11:13:06,749016.0,0.0,0.0
11:13:06,746160.0,0.0,0.0
11:13:06,749283.0,0.0,0.0
11:13:06,747048.0,0.0,0.0
11:13:06,747493.0,0.0,0.0
11:13:06,748893.0,0.0,0.0
11:13:06,746141.0,0.0,0.0
11:13:06,749338.0,0.0,0.0
11:13:07,747070.0,0.0,0.0
11:13:07,747549.0,0.0,0.0
11:13:07,748902.0,0.0,0.0
11:13:07,746109.0,0.0,0.0
11:13:07,749231.0,0.0,0.0
11:13:07,746948.0,0.0,0.0
11:13:07,747488.0,0.0,0.0
11:13:07,748837.0,0.0,0.0
11:13:07,746051.0,0.0,0.0
11:13:07,749217.0,0.0,0.0
11:13:07,746834.0,0.0,0.0
11:13:07,747398.0,0.0,0.0
11:13:07,748746.0,0.0,0.0
11:13:07,745981.0,0.0,0.0
11:13:07,749068.0,0.0,0.0
11:13:07,746736.0,0.0,0.0
11:13:07,747341.0,0.0,0.0
11:13:07,748634.0,0.0,0.0
11:13:07,745891.0,0.0,0.0
11:13:07,748996.0,0.0,0.0
11:13:07,746650.0,0.0,0.0
11:13:07,747320.0,0.0,0.0
11:13:07,748536.0,0.0,0.0
11:13:07,745808.0,0.0,0.0
11:13:07,748926.0,0.0,0.0
11:13:07,746513.0,0.0,0.0
11:13:07,747229.0,0.0,0.0
11:13:07,748440.0,0.0,0.0
11:13:07,745724.0,0.0,0.0
11:13:07,748860.0,0.0,0.0
11:13:07,746471.0,0.0,0.0
11:13:07,747188.0,0.0,0.0
11:13:07,748354.0,0.0,0.0
11:13:07,745691.0,0.0,0.0
11:13:07,748832.0,0.0,0.0
11:13:07,746388.0,0.0,0.0
11:13:07,747222.0,0.0,0.0
11:13:07,748338.0,0.0,0.0
11:13:07,745693.0,0.0,0.0
11:13:07,748824.0,0.0,0.0
11:13:07,746323.0,0.0,0.0
11:13:07,747143.0,0.0,0.0
11:13:07,748251.0,0.0,0.0
11:13:07,745627.0,0.0,0.0
11:13:07,748803.0,0.0,0.0
11:13:07,746302.0,0.0,0.0
11:13:07,747151.0,0.0,0.0
11:13:07,748256.0,0.0,0.0
11:13:07,745638.0,0.0,0.0
11:13:07,748786.0,0.0,0.0
11:13:07,746211.0,0.0,0.0
11:13:07,747125.0,0.0,0.0
11:13:07,748136.0,0.0,0.0
11:13:07,745569.0,0.0,0.0
11:13:07,748747.0,0.0,0.0
11:13:07,746182.0,0.0,0.0
11:13:07,747134.0,0.0,0.0
11:13:07,748149.0,0.0,0.0
11:13:07,745595.0,0.0,0.0
11:13:07,748748.0,0.0,0.0
11:13:07,746168.0,0.0,0.0
11:13:07,747136.0,0.0,0.0
11:13:07,748064.0,0.0,0.0
11:13:07,745553.0,0.0,0.0
11:13:07,748698.0,0.0,0.0
11:13:07,746111.0,0.0,0.0
11:13:07,747141.0,0.0,0.0
11:13:07,748033.0,0.0,0.0
11:13:07,745534.0,0.0,0.0
11:13:07,748704.0,0.0,0.0
11:13:07,746076.0,0.0,0.0
11:13:07,747138.0,0.0,0.0
11:13:07,747966.0,0.0,0.0
11:13:07,745514.0,0.0,0.0
11:13:07,748686.0,0.0,0.0
11:13:07,746020.0,0.0,0.0
11:13:07,747113.0,0.0,0.0
11:13:07,747925.0,0.0,0.0
11:13:07,745474.0,0.0,0.0
11:13:07,748647.0,0.0,0.0
11:13:07,745996.0,0.0,0.0
11:13:07,747124.0,0.0,0.0
11:13:07,747904.0,0.0,0.0
11:13:07,745498.0,0.0,0.0
11:13:07,748667.0,0.0,0.0
11:13:07,745982.0,0.0,0.0
11:13:07,747146.0,0.0,0.0
11:13:07,747849.0,0.0,0.0
11:13:07,745471.0,0.0,0.0
11:13:07,748624.0,0.0,0.0
11:13:07,745926.0,0.0,0.0
11:13:07,747114.0,0.0,0.0
11:13:07,747812.0,0.0,0.0
11:13:07,745498.0,0.0,0.0
11:13:07,748632.0,0.0,0.0
11:13:07,745896.0,0.0,0.0
11:13:07,747154.0,0.0,0.0
11:13:07,747818.0,0.0,0.0
11:13:07,745462.0,0.0,0.0
11:13:07,748609.0,0.0,0.0
11:13:07,745894.0,0.0,0.0
11:13:07,747159.0,0.0,0.0
11:13:07,747786.0,0.0,0.0
11:13:07,745418.0,0.0,0.0
11:13:07,748544.0,0.0,0.0
11:13:07,745839.0,0.0,0.0
11:13:07,747150.0,0.0,0.0
11:13:07,747744.0,0.0,0.0
11:13:07,745489.0,0.0,0.0
11:13:07,748632.0,0.0,0.0
11:13:07,745837.0,0.0,0.0
11:13:07,747173.0,0.0,0.0
11:13:07,747724.0,0.0,0.0
11:13:07,745484.0,0.0,0.0
11:13:07,748593.0,0.0,0.0
11:13:07,745806.0,0.0,0.0
11:13:07,747211.0,0.0,0.0
11:13:07,747714.0,0.0,0.0
11:13:07,745457.0,0.0,0.0
11:13:07,748562.0,0.0,0.0
11:13:07,745741.0,0.0,0.0
11:13:07,747181.0,0.0,0.0
11:13:07,747661.0,0.0,0.0
11:13:07,745457.0,0.0,0.0
11:13:07,748574.0,0.0,0.0
11:13:08,745746.0,0.0,0.0
11:13:08,747189.0,0.0,0.0
11:13:08,747620.0,0.0,0.0
11:13:08,745420.0,0.0,0.0
11:13:08,748546.0,0.0,0.0
11:13:08,745702.0,0.0,0.0
11:13:08,747184.0,0.0,0.0
11:13:08,747551.0,0.0,0.0
11:13:08,745408.0,0.0,0.0
11:13:08,748544.0,0.0,0.0
11:13:08,745681.0,0.0,0.0
11:13:08,747176.0,0.0,0.0
11:13:08,747540.0,0.0,0.0
11:13:08,745440.0,0.0,0.0
11:13:08,748541.0,0.0,0.0
11:13:08,745646.0,0.0,0.0
11:13:08,747204.0,0.0,0.0
11:13:08,747511.0,0.0,0.0
11:13:08,745413.0,0.0,0.0
11:13:08,748511.0,0.0,0.0
11:13:08,745626.0,0.0,0.0
11:13:08,747245.0,0.0,0.0
11:13:08,747533.0,0.0,0.0
11:13:08,745463.0,0.0,0.0
11:13:08,748538.0,0.0,0.0
11:13:08,745598.0,0.0,0.0
11:13:08,747175.0,0.0,0.0
11:13:08,747440.0,0.0,0.0
11:13:08,745500.0,0.0,0.0
11:13:08,748601.0,0.0,0.0
11:13:08,745619.0,0.0,0.0
11:13:08,747289.0,0.0,0.0
11:13:08,747468.0,0.0,0.0
11:13:08,745459.0,0.0,0.0
11:13:08,748531.0,0.0,0.0
11:13:08,745579.0,0.0,0.0
11:13:08,747302.0,0.0,0.0
11:13:08,747462.0,0.0,0.0
11:13:08,745518.0,0.0,0.0
11:13:08,748563.0,0.0,0.0
11:13:08,745581.0,0.0,0.0
11:13:08,747342.0,0.0,0.0
11:13:08,747440.0,0.0,0.0
11:13:08,745463.0,0.0,0.0
11:13:08,748486.0,0.0,0.0
11:13:08,745526.0,0.0,0.0
11:13:08,747295.0,0.0,0.0
11:13:08,747346.0,0.0,0.0
11:13:08,745419.0,0.0,0.0
11:13:08,748461.0,0.0,0.0
11:13:08,745449.0,0.0,0.0
11:13:08,747276.0,0.0,0.0
11:13:08,747313.0,0.0,0.0
11:13:08,745433.0,0.0,0.0
11:13:08,748456.0,0.0,0.0
11:13:08,745433.0,0.0,0.0
11:13:08,747230.0,0.0,0.0
11:13:08,747251.0,0.0,0.0
11:13:08,745422.0,0.0,0.0
11:13:08,748404.0,0.0,0.0
11:13:08,745404.0,0.0,0.0
11:13:08,747256.0,0.0,0.0
11:13:08,747208.0,0.0,0.0
11:13:08,745421.0,0.0,0.0
11:13:08,748400.0,0.0,0.0
11:13:08,745359.0,0.0,0.0
11:13:08,747281.0,0.0,0.0
11:13:08,747217.0,0.0,0.0
11:13:08,745468.0,0.0,0.0
11:13:08,748475.0,0.0,0.0
11:13:08,745414.0,0.0,0.0
11:13:08,747368.0,0.0,0.0
11:13:08,747233.0,0.0,0.0
11:13:08,745506.0,0.0,0.0
11:13:08,748494.0,0.0,0.0
11:13:08,745424.0,0.0,0.0
11:13:08,747369.0,0.0,0.0
11:13:08,747234.0,0.0,0.0
11:13:08,745532.0,0.0,0.0
11:13:08,748488.0,0.0,0.0
11:13:08,745446.0,0.0,0.0
11:13:08,747454.0,0.0,0.0
11:13:08,747243.0,0.0,0.0
11:13:08,745563.0,0.0,0.0
11:13:08,748521.0,0.0,0.0
11:13:08,745466.0,0.0,0.0
11:13:08,747512.0,0.0,0.0
11:13:08,747303.0,0.0,0.0
11:13:08,745626.0,0.0,0.0
11:13:08,748508.0,0.0,0.0
11:13:08,745438.0,0.0,0.0
11:13:08,747534.0,0.0,0.0
11:13:08,747251.0,0.0,0.0
11:13:08,745628.0,0.0,0.0
11:13:08,748580.0,0.0,0.0
11:13:08,745485.0,0.0,0.0
11:13:08,747552.0,0.0,0.0
11:13:08,747257.0,0.0,0.0
11:13:08,745641.0,0.0,0.0
11:13:08,748552.0,0.0,0.0
11:13:08,745453.0,0.0,0.0
11:13:08,747561.0,0.0,0.0
11:13:08,747242.0,0.0,0.0
11:13:08,745678.0,0.0,0.0
11:13:08,748546.0,0.0,0.0
11:13:08,745440.0,0.0,0.0
11:13:08,747609.0,0.0,0.0
11:13:08,747214.0,0.0,0.0
11:13:08,745683.0,0.0,0.0
11:13:08,748560.0,0.0,0.0
11:13:08,745433.0,0.0,0.0
11:13:08,747617.0,0.0,0.0
11:13:08,747188.0,0.0,0.0
11:13:08,745686.0,0.0,0.0
11:13:08,748546.0,0.0,0.0
11:13:08,745449.0,0.0,0.0
11:13:08,747653.0,0.0,0.0
11:13:08,747189.0,0.0,0.0
11:13:08,745724.0,0.0,0.0
11:13:08,748567.0,0.0,0.0
11:13:08,745446.0,0.0,0.0
11:13:08,747669.0,0.0,0.0
11:13:08,747164.0,0.0,0.0
11:13:08,745738.0,0.0,0.0
11:13:08,748558.0,0.0,0.0
11:13:09,745416.0,0.0,0.0
11:13:09,747684.0,0.0,0.0
11:13:09,747189.0,0.0,0.0
11:13:09,745789.0,0.0,0.0
11:13:09,748613.0,0.0,0.0
11:13:09,745470.0,0.0,0.0
11:13:09,747744.0,0.0,0.0
11:13:09,747168.0,0.0,0.0
11:13:09,745821.0,0.0,0.0
11:13:09,748603.0,0.0,0.0
11:13:09,745484.0,0.0,0.0
11:13:09,747773.0,0.0,0.0
11:13:09,747168.0,0.0,0.0
11:13:09,745850.0,0.0,0.0
11:13:09,748611.0,0.0,0.0
11:13:09,745473.0,0.0,0.0
11:13:09,747801.0,0.0,0.0
11:13:09,747162.0,0.0,0.0
11:13:09,745883.0,0.0,0.0
11:13:09,748626.0,0.0,0.0
11:13:09,745461.0,0.0,0.0
11:13:09,747812.0,0.0,0.0
11:13:09,747160.0,0.0,0.0
11:13:09,745906.0,0.0,0.0
11:13:09,748631.0,0.0,0.0
11:13:09,745455.0,0.0,0.0
11:13:09,747862.0,0.0,0.0
11:13:09,747189.0,0.0,0.0
11:13:09,745942.0,0.0,0.0
11:13:09,748628.0,0.0,0.0
11:13:09,745463.0,0.0,0.0
11:13:09,747910.0,0.0,0.0
11:13:09,747164.0,0.0,0.0
11:13:09,745983.0,0.0,0.0
11:13:09,748664.0,0.0,0.0
11:13:09,745511.0,0.0,0.0
11:13:09,747962.0,0.0,0.0
11:13:09,747182.0,0.0,0.0
11:13:09,746022.0,0.0,0.0
11:13:09,748689.0,0.0,0.0
11:13:09,745523.0,0.0,0.0
11:13:09,747991.0,0.0,0.0
11:13:09,747127.0,0.0,0.0
11:13:09,746038.0,0.0,0.0
11:13:09,748711.0,0.0,0.0
11:13:09,745528.0,0.0,0.0
11:13:09,748024.0,0.0,0.0
11:13:09,747150.0,0.0,0.0
11:13:09,746085.0,0.0,0.0
11:13:09,748714.0,0.0,0.0
11:13:09,745553.0,0.0,0.0
11:13:09,748063.0,0.0,0.0
11:13:09,747142.0,0.0,0.0
11:13:09,746077.0,0.0,0.0
11:13:09,748663.0,0.0,0.0
11:13:09,745554.0,0.0,0.0
11:13:09,748226.0,0.0,0.0
11:13:09,747256.0,0.0,0.0
11:13:09,746173.0,0.0,0.0
11:13:09,748753.0,0.0,0.0
11:13:09,745573.0,0.0,0.0
11:13:09,748146.0,0.0,0.0
11:13:09,747134.0,0.0,0.0
11:13:09,746169.0,0.0,0.0
11:13:09,748739.0,0.0,0.0
11:13:09,745569.0,0.0,0.0
11:13:09,748126.0,0.0,0.0
11:13:09,747114.0,0.0,0.0
11:13:09,746192.0,0.0,0.0
11:13:09,748749.0,0.0,0.0
11:13:09,745530.0,0.0,0.0
11:13:09,748132.0,0.0,0.0
11:13:09,747100.0,0.0,0.0
11:13:09,746181.0,0.0,0.0
11:13:09,748656.0,0.0,0.0
11:13:09,745515.0,0.0,0.0
11:13:09,748126.0,0.0,0.0
11:13:09,746993.0,0.0,0.0
11:13:09,746133.0,0.0,0.0
11:13:09,748623.0,0.0,0.0
11:13:09,745421.0,0.0,0.0
11:13:09,748076.0,0.0,0.0
11:13:09,746966.0,0.0,0.0
11:13:09,746138.0,0.0,0.0
11:13:09,748575.0,0.0,0.0
11:13:09,745385.0,0.0,0.0
11:13:09,748063.0,0.0,0.0
11:13:09,746873.0,0.0,0.0
11:13:09,746093.0,0.0,0.0
11:13:09,748539.0,0.0,0.0
11:13:09,745359.0,0.0,0.0
11:13:09,748024.0,0.0,0.0
11:13:09,746832.0,0.0,0.0
11:13:09,746107.0,0.0,0.0
11:13:09,748564.0,0.0,0.0
11:13:09,745376.0,0.0,0.0
11:13:09,748091.0,0.0,0.0
11:13:09,746836.0,0.0,0.0
11:13:09,746131.0,0.0,0.0
11:13:09,748521.0,0.0,0.0
11:13:09,745340.0,0.0,0.0
11:13:09,748114.0,0.0,0.0
11:13:09,746829.0,0.0,0.0
11:13:09,746128.0,0.0,0.0
11:13:09,748516.0,0.0,0.0
11:13:09,745354.0,0.0,0.0
11:13:09,748115.0,0.0,0.0
11:13:09,746803.0,0.0,0.0
11:13:09,746156.0,0.0,0.0
11:13:09,748508.0,0.0,0.0
11:13:09,745341.0,0.0,0.0
11:13:09,748126.0,0.0,0.0
11:13:09,746780.0,0.0,0.0
11:13:09,746157.0,0.0,0.0
11:13:09,748492.0,0.0,0.0
11:13:09,745344.0,0.0,0.0
11:13:09,748140.0,0.0,0.0
11:13:09,746763.0,0.0,0.0
11:13:09,746200.0,0.0,0.0
11:13:09,748513.0,0.0,0.0
11:13:09,745354.0,0.0,0.0
11:13:09,748166.0,0.0,0.0
11:13:09,746739.0,0.0,0.0
11:13:09,746181.0,0.0,0.0
11:13:09,748471.0,0.0,0.0
11:13:10,745321.0,0.0,0.0
11:13:10,748171.0,0.0,0.0
11:13:10,746744.0,0.0,0.0
11:13:10,746223.0,0.0,0.0
11:13:10,748442.0,0.0,0.0
11:13:10,745311.0,0.0,0.0
11:13:10,748169.0,0.0,0.0
11:13:10,746684.0,0.0,0.0
11:13:10,746247.0,0.0,0.0
11:13:10,748474.0,0.0,0.0
11:13:10,745348.0,0.0,0.0
11:13:10,748189.0,0.0,0.0
11:13:10,746663.0,0.0,0.0
11:13:10,746246.0,0.0,0.0
11:13:10,748464.0,0.0,0.0
11:13:10,745338.0,0.0,0.0
11:13:10,748200.0,0.0,0.0
11:13:10,746671.0,0.0,0.0
11:13:10,746278.0,0.0,0.0
11:13:10,748427.0,0.0,0.0
11:13:10,745293.0,0.0,0.0
11:13:10,748224.0,0.0,0.0
11:13:10,746681.0,0.0,0.0
11:13:10,746293.0,0.0,0.0
11:13:10,748436.0,0.0,0.0
11:13:10,745329.0,0.0,0.0
11:13:10,748213.0,0.0,0.0
11:13:10,746639.0,0.0,0.0
11:13:10,746334.0,0.0,0.0
11:13:10,748435.0,0.0,0.0
11:13:10,745343.0,0.0,0.0
11:13:10,748263.0,0.0,0.0
11:13:10,746621.0,0.0,0.0
11:13:10,746325.0,0.0,0.0
11:13:10,748414.0,0.0,0.0
11:13:10,745321.0,0.0,0.0
11:13:10,748240.0,0.0,0.0
11:13:10,746548.0,0.0,0.0
11:13:10,746325.0,0.0,0.0
11:13:10,748394.0,0.0,0.0
11:13:10,745291.0,0.0,0.0
11:13:10,748286.0,0.0,0.0
11:13:10,746558.0,0.0,0.0
11:13:10,746386.0,0.0,0.0
11:13:10,748403.0,0.0,0.0
11:13:10,745308.0,0.0,0.0
11:13:10,748266.0,0.0,0.0
11:13:10,746556.0,0.0,0.0
11:13:10,746356.0,0.0,0.0
11:13:10,748351.0,0.0,0.0
11:13:10,745310.0,0.0,0.0
11:13:10,748307.0,0.0,0.0
11:13:10,746541.0,0.0,0.0
11:13:10,746434.0,0.0,0.0
11:13:10,748388.0,0.0,0.0
11:13:10,745328.0,0.0,0.0
11:13:10,748323.0,0.0,0.0
11:13:10,746502.0,0.0,0.0
11:13:10,746462.0,0.0,0.0
11:13:10,748426.0,0.0,0.0
11:13:10,745341.0,0.0,0.0
11:13:10,748326.0,0.0,0.0
11:13:10,746485.0,0.0,0.0
11:13:10,746424.0,0.0,0.0
11:13:10,748353.0,0.0,0.0
11:13:10,745307.0,0.0,0.0
11:13:10,748361.0,0.0,0.0
11:13:10,746484.0,0.0,0.0
11:13:10,746461.0,0.0,0.0
11:13:10,748351.0,0.0,0.0
11:13:10,745317.0,0.0,0.0
11:13:10,748341.0,0.0,0.0
11:13:10,746461.0,0.0,0.0
11:13:10,746478.0,0.0,0.0
11:13:10,748314.0,0.0,0.0
11:13:10,745275.0,0.0,0.0
11:13:10,748236.0,0.0,0.0
11:13:10,746381.0,0.0,0.0
11:13:10,746591.0,0.0,0.0
11:13:10,748416.0,0.0,0.0
11:13:10,745341.0,0.0,0.0
11:13:10,748347.0,0.0,0.0
11:13:10,746389.0,0.0,0.0
11:13:10,746483.0,0.0,0.0
11:13:10,748263.0,0.0,0.0
11:13:10,745278.0,0.0,0.0
11:13:10,748340.0,0.0,0.0
11:13:10,746358.0,0.0,0.0
11:13:10,746512.0,0.0,0.0
11:13:10,748314.0,0.0,0.0
11:13:10,745313.0,0.0,0.0
11:13:10,748404.0,0.0,0.0
11:13:10,746334.0,0.0,0.0
11:13:10,746501.0,0.0,0.0
11:13:10,748231.0,0.0,0.0
11:13:10,745246.0,0.0,0.0
11:13:10,748308.0,0.0,0.0
11:13:10,746248.0,0.0,0.0
11:13:10,746470.0,0.0,0.0
11:13:10,748152.0,0.0,0.0
11:13:10,745186.0,0.0,0.0
11:13:10,748283.0,0.0,0.0
11:13:10,746201.0,0.0,0.0
11:13:10,746442.0,0.0,0.0
11:13:10,748098.0,0.0,0.0
11:13:10,745149.0,0.0,0.0
11:13:10,748236.0,0.0,0.0
11:13:10,746089.0,0.0,0.0
11:13:10,746391.0,0.0,0.0
11:13:10,748043.0,0.0,0.0
11:13:10,745093.0,0.0,0.0
11:13:10,748197.0,0.0,0.0
11:13:10,746061.0,0.0,0.0
11:13:10,746405.0,0.0,0.0
11:13:10,748011.0,0.0,0.0
11:13:10,745121.0,0.0,0.0
11:13:10,748252.0,0.0,0.0
11:13:10,746066.0,0.0,0.0
11:13:10,746428.0,0.0,0.0
11:13:10,747982.0,0.0,0.0
11:13:10,745079.0,0.0,0.0
11:13:10,748218.0,0.0,0.0
11:13:10,746013.0,0.0,0.0
11:13:10,746434.0,0.0,0.0
11:13:10,747977.0,0.0,0.0
11:13:11,745055.0,0.0,0.0
11:13:11,748248.0,0.0,0.0
11:13:11,746013.0,0.0,0.0
11:13:11,746428.0,0.0,0.0
11:13:11,747919.0,0.0,0.0
11:13:11,745048.0,0.0,0.0
11:13:11,748193.0,0.0,0.0
11:13:11,745953.0,0.0,0.0
11:13:11,746427.0,0.0,0.0
11:13:11,747865.0,0.0,0.0
11:13:11,745036.0,0.0,0.0
11:13:11,748227.0,0.0,0.0
11:13:11,745945.0,0.0,0.0
11:13:11,746499.0,0.0,0.0
11:13:11,747916.0,0.0,0.0
11:13:11,745050.0,0.0,0.0
11:13:11,748224.0,0.0,0.0
11:13:11,745896.0,0.0,0.0
11:13:11,746476.0,0.0,0.0
11:13:11,747880.0,0.0,0.0
11:13:11,745068.0,0.0,0.0
11:13:11,748285.0,0.0,0.0
11:13:11,745913.0,0.0,0.0
11:13:11,746476.0,0.0,0.0
11:13:11,747808.0,0.0,0.0
11:13:11,745042.0,0.0,0.0
11:13:11,748251.0,0.0,0.0
11:13:11,745872.0,0.0,0.0
11:13:11,746525.0,0.0,0.0
11:13:11,747841.0,0.0,0.0
11:13:11,745075.0,0.0,0.0
11:13:11,748249.0,0.0,0.0
11:13:11,745829.0,0.0,0.0
11:13:11,746554.0,0.0,0.0
11:13:11,747815.0,0.0,0.0
11:13:11,745073.0,0.0,0.0
11:13:11,748265.0,0.0,0.0
11:13:11,745828.0,0.0,0.0
11:13:11,746551.0,0.0,0.0
11:13:11,747801.0,0.0,0.0
11:13:11,745079.0,0.0,0.0
11:13:11,748271.0,0.0,0.0
11:13:11,745847.0,0.0,0.0
11:13:11,746599.0,0.0,0.0
11:13:11,747802.0,0.0,0.0
11:13:11,745068.0,0.0,0.0
11:13:11,748298.0,0.0,0.0
11:13:11,745813.0,0.0,0.0
11:13:11,746575.0,0.0,0.0
11:13:11,747789.0,0.0,0.0
11:13:11,745086.0,0.0,0.0
11:13:11,748289.0,0.0,0.0
11:13:11,745787.0,0.0,0.0
11:13:11,746607.0,0.0,0.0
11:13:11,747727.0,0.0,0.0
11:13:11,745074.0,0.0,0.0
11:13:11,748270.0,0.0,0.0
11:13:11,745759.0,0.0,0.0
11:13:11,746654.0,0.0,0.0
11:13:11,747767.0,0.0,0.0
11:13:11,745114.0,0.0,0.0
11:13:11,748300.0,0.0,0.0
11:13:11,745744.0,0.0,0.0
11:13:11,746646.0,0.0,0.0
11:13:11,747699.0,0.0,0.0
11:13:11,745051.0,0.0,0.0
11:13:11,748274.0,0.0,0.0
11:13:11,745724.0,0.0,0.0
11:13:11,746658.0,0.0,0.0
11:13:11,747682.0,0.0,0.0
11:13:11,745079.0,0.0,0.0
11:13:11,748281.0,0.0,0.0
11:13:11,745697.0,0.0,0.0
11:13:11,746677.0,0.0,0.0
11:13:11,747684.0,0.0,0.0
11:13:11,745090.0,0.0,0.0
11:13:11,748286.0,0.0,0.0
11:13:11,745686.0,0.0,0.0
11:13:11,746703.0,0.0,0.0
11:13:11,747647.0,0.0,0.0
11:13:11,745071.0,0.0,0.0
11:13:11,748311.0,0.0,0.0
11:13:11,745714.0,0.0,0.0
11:13:11,746752.0,0.0,0.0
11:13:11,747663.0,0.0,0.0
11:13:11,745124.0,0.0,0.0
11:13:11,748318.0,0.0,0.0
11:13:11,745668.0,0.0,0.0
11:13:11,746758.0,0.0,0.0
11:13:11,747640.0,0.0,0.0
11:13:11,745086.0,0.0,0.0
11:13:11,748322.0,0.0,0.0
11:13:11,745659.0,0.0,0.0
11:13:11,746742.0,0.0,0.0
11:13:11,747580.0,0.0,0.0
11:13:11,745077.0,0.0,0.0
11:13:11,748280.0,0.0,0.0
11:13:11,745588.0,0.0,0.0
11:13:11,746779.0,0.0,0.0
11:13:11,747657.0,0.0,0.0
11:13:11,745178.0,0.0,0.0
11:13:11,748386.0,0.0,0.0
11:13:11,745616.0,0.0,0.0
11:13:11,746799.0,0.0,0.0
11:13:11,747549.0,0.0,0.0
11:13:11,745106.0,0.0,0.0
11:13:11,748319.0,0.0,0.0
11:13:11,745572.0,0.0,0.0
11:13:11,746794.0,0.0,0.0
11:13:11,747497.0,0.0,0.0
11:13:11,745076.0,0.0,0.0
11:13:11,748269.0,0.0,0.0
11:13:11,745513.0,0.0,0.0
11:13:11,746764.0,0.0,0.0
11:13:11,747443.0,0.0,0.0
11:13:11,745049.0,0.0,0.0
11:13:11,748243.0,0.0,0.0
11:13:11,745433.0,0.0,0.0
11:13:11,746724.0,0.0,0.0
11:13:11,747369.0,0.0,0.0
11:13:11,744999.0,0.0,0.0
11:13:11,748207.0,0.0,0.0
11:13:11,745373.0,0.0,0.0
11:13:11,746684.0,0.0,0.0
11:13:11,747315.0,0.0,0.0
11:13:12,744973.0,0.0,0.0
11:13:12,748124.0,0.0,0.0
11:13:12,745294.0,0.0,0.0
11:13:12,746640.0,0.0,0.0
11:13:12,747239.0,0.0,0.0
11:13:12,744921.0,0.0,0.0
11:13:12,748113.0,0.0,0.0
11:13:12,745251.0,0.0,0.0
11:13:12,746642.0,0.0,0.0
11:13:12,747174.0,0.0,0.0
11:13:12,744886.0,0.0,0.0
11:13:12,748093.0,0.0,0.0
11:13:12,745223.0,0.0,0.0
11:13:12,746664.0,0.0,0.0
11:13:12,747159.0,0.0,0.0
11:13:12,744871.0,0.0,0.0
11:13:12,748085.0,0.0,0.0
11:13:12,745209.0,0.0,0.0
11:13:12,746671.0,0.0,0.0
11:13:12,747139.0,0.0,0.0
11:13:12,744875.0,0.0,0.0
11:13:12,748044.0,0.0,0.0
11:13:12,745171.0,0.0,0.0
11:13:12,746684.0,0.0,0.0
11:13:12,747100.0,0.0,0.0
11:13:12,744841.0,0.0,0.0
11:13:12,747986.0,0.0,0.0
11:13:12,745098.0,0.0,0.0
11:13:12,746663.0,0.0,0.0
11:13:12,747058.0,0.0,0.0
11:13:12,744856.0,0.0,0.0
11:13:12,748042.0,0.0,0.0
11:13:12,745107.0,0.0,0.0
11:13:12,746688.0,0.0,0.0
11:13:12,747046.0,0.0,0.0
11:13:12,744908.0,0.0,0.0
11:13:12,748074.0,0.0,0.0
11:13:12,745119.0,0.0,0.0
11:13:12,746721.0,0.0,0.0
11:13:12,747057.0,0.0,0.0
11:13:12,744903.0,0.0,0.0
11:13:12,748043.0,0.0,0.0
11:13:12,745063.0,0.0,0.0
11:13:12,746698.0,0.0,0.0
11:13:12,746981.0,0.0,0.0
11:13:12,744873.0,0.0,0.0
11:13:12,747980.0,0.0,0.0
11:13:12,745054.0,0.0,0.0
11:13:12,746723.0,0.0,0.0
11:13:12,746957.0,0.0,0.0
11:13:12,744892.0,0.0,0.0
11:13:12,748003.0,0.0,0.0
11:13:12,745023.0,0.0,0.0
11:13:12,746719.0,0.0,0.0
11:13:12,746941.0,0.0,0.0
11:13:12,744896.0,0.0,0.0
11:13:12,748013.0,0.0,0.0
11:13:12,745018.0,0.0,0.0
11:13:12,746771.0,0.0,0.0
11:13:12,746923.0,0.0,0.0
11:13:12,744889.0,0.0,0.0
11:13:12,748006.0,0.0,0.0
11:13:12,744990.0,0.0,0.0
11:13:12,746748.0,0.0,0.0
11:13:12,746880.0,0.0,0.0
11:13:12,744920.0,0.0,0.0
11:13:12,748016.0,0.0,0.0
11:13:12,744983.0,0.0,0.0
11:13:12,746796.0,0.0,0.0
11:13:12,746858.0,0.0,0.0
11:13:12,744896.0,0.0,0.0
11:13:12,747949.0,0.0,0.0
11:13:12,744920.0,0.0,0.0
11:13:12,746786.0,0.0,0.0
11:13:12,746846.0,0.0,0.0
11:13:12,744943.0,0.0,0.0
11:13:12,748026.0,0.0,0.0
11:13:12,744967.0,0.0,0.0
11:13:12,746829.0,0.0,0.0
11:13:12,746828.0,0.0,0.0
11:13:12,744934.0,0.0,0.0
11:13:12,747973.0,0.0,0.0
11:13:12,744928.0,0.0,0.0
11:13:12,746797.0,0.0,0.0
11:13:12,746779.0,0.0,0.0
11:13:12,744929.0,0.0,0.0
11:13:12,747951.0,0.0,0.0
11:13:12,744875.0,0.0,0.0
11:13:12,746838.0,0.0,0.0
11:13:12,746753.0,0.0,0.0
11:13:12,744928.0,0.0,0.0
11:13:12,747961.0,0.0,0.0
11:13:12,744868.0,0.0,0.0
11:13:12,746830.0,0.0,0.0
11:13:12,746705.0,0.0,0.0
11:13:12,744924.0,0.0,0.0
11:13:12,747960.0,0.0,0.0
11:13:12,744864.0,0.0,0.0
11:13:12,746845.0,0.0,0.0
11:13:12,746703.0,0.0,0.0
11:13:12,744945.0,0.0,0.0
11:13:12,747967.0,0.0,0.0
11:13:12,744847.0,0.0,0.0
11:13:12,746834.0,0.0,0.0
11:13:12,746649.0,0.0,0.0
11:13:12,744928.0,0.0,0.0
11:13:12,747941.0,0.0,0.0
11:13:12,744821.0,0.0,0.0
11:13:12,746836.0,0.0,0.0
11:13:12,746630.0,0.0,0.0
11:13:12,744923.0,0.0,0.0
11:13:12,747904.0,0.0,0.0
11:13:12,744776.0,0.0,0.0
11:13:12,746841.0,0.0,0.0
11:13:12,746597.0,0.0,0.0
11:13:12,744928.0,0.0,0.0
11:13:12,747883.0,0.0,0.0
11:13:12,744733.0,0.0,0.0
11:13:12,746764.0,0.0,0.0
11:13:12,746483.0,0.0,0.0
11:13:12,745009.0,0.0,0.0
11:13:12,748002.0,0.0,0.0
11:13:12,744756.0,0.0,0.0
11:13:12,746864.0,0.0,0.0
11:13:12,746519.0,0.0,0.0
11:13:13,744938.0,0.0,0.0
11:13:13,747859.0,0.0,0.0
11:13:13,744702.0,0.0,0.0
11:13:13,746868.0,0.0,0.0
11:13:13,746480.0,0.0,0.0
11:13:13,744945.0,0.0,0.0
11:13:13,747834.0,0.0,0.0
11:13:13,744666.0,0.0,0.0
11:13:13,746814.0,0.0,0.0
11:13:13,746391.0,0.0,0.0
11:13:13,744895.0,0.0,0.0
11:13:13,747793.0,0.0,0.0
11:13:13,744572.0,0.0,0.0
11:13:13,746764.0,0.0,0.0
11:13:13,746269.0,0.0,0.0
11:13:13,744792.0,0.0,0.0
11:13:13,747659.0,0.0,0.0
11:13:13,744501.0,0.0,0.0
11:13:13,746741.0,0.0,0.0
11:13:13,746197.0,0.0,0.0
11:13:13,744746.0,0.0,0.0
11:13:13,747594.0,0.0,0.0
11:13:13,744398.0,0.0,0.0
11:13:13,746688.0,0.0,0.0
11:13:13,746149.0,0.0,0.0
11:13:13,744688.0,0.0,0.0
11:13:13,747512.0,0.0,0.0
11:13:13,744321.0,0.0,0.0
11:13:13,746668.0,0.0,0.0
11:13:13,746104.0,0.0,0.0
11:13:13,744719.0,0.0,0.0
11:13:13,747519.0,0.0,0.0
11:13:13,744302.0,0.0,0.0
11:13:13,746638.0,0.0,0.0
11:13:13,746038.0,0.0,0.0
11:13:13,744693.0,0.0,0.0
11:13:13,747489.0,0.0,0.0
11:13:13,744272.0,0.0,0.0
11:13:13,746634.0,0.0,0.0
11:13:13,745976.0,0.0,0.0
11:13:13,744655.0,0.0,0.0
11:13:13,747432.0,0.0,0.0
11:13:13,744237.0,0.0,0.0
11:13:13,746613.0,0.0,0.0
11:13:13,745907.0,0.0,0.0
11:13:13,744684.0,0.0,0.0
11:13:13,747427.0,0.0,0.0
11:13:13,744197.0,0.0,0.0
11:13:13,746620.0,0.0,0.0
11:13:13,745868.0,0.0,0.0
11:13:13,744610.0,0.0,0.0
11:13:13,747383.0,0.0,0.0
11:13:13,744160.0,0.0,0.0
11:13:13,746585.0,0.0,0.0
11:13:13,745812.0,0.0,0.0
11:13:13,744637.0,0.0,0.0
11:13:13,747384.0,0.0,0.0
11:13:13,744152.0,0.0,0.0
11:13:13,746613.0,0.0,0.0
11:13:13,745779.0,0.0,0.0
11:13:13,744641.0,0.0,0.0
11:13:13,747350.0,0.0,0.0
11:13:13,744117.0,0.0,0.0
11:13:13,746605.0,0.0,0.0
11:13:13,745753.0,0.0,0.0
11:13:13,744654.0,0.0,0.0
11:13:13,747313.0,0.0,0.0
11:13:13,744088.0,0.0,0.0
11:13:13,746588.0,0.0,0.0
11:13:13,745698.0,0.0,0.0
11:13:13,744612.0,0.0,0.0
11:13:13,747286.0,0.0,0.0
11:13:13,744028.0,0.0,0.0
11:13:13,746603.0,0.0,0.0
11:13:13,745678.0,0.0,0.0
11:13:13,744638.0,0.0,0.0
11:13:13,747273.0,0.0,0.0
11:13:13,744053.0,0.0,0.0
11:13:13,746584.0,0.0,0.0
11:13:13,745618.0,0.0,0.0
11:13:13,744621.0,0.0,0.0
11:13:13,747235.0,0.0,0.0
11:13:13,744029.0,0.0,0.0
11:13:13,746631.0,0.0,0.0
11:13:13,745573.0,0.0,0.0
11:13:13,744639.0,0.0,0.0
11:13:13,747191.0,0.0,0.0
11:13:13,743963.0,0.0,0.0
11:13:13,746591.0,0.0,0.0
11:13:13,745534.0,0.0,0.0
11:13:13,744604.0,0.0,0.0
11:13:13,747148.0,0.0,0.0
11:13:13,743969.0,0.0,0.0
11:13:13,746637.0,0.0,0.0
11:13:13,745526.0,0.0,0.0
11:13:13,744643.0,0.0,0.0
11:13:13,747154.0,0.0,0.0
11:13:13,743967.0,0.0,0.0
11:13:13,746651.0,0.0,0.0
11:13:13,745479.0,0.0,0.0
11:13:13,744618.0,0.0,0.0
11:13:13,747116.0,0.0,0.0
11:13:13,743915.0,0.0,0.0
11:13:13,746622.0,0.0,0.0
11:13:13,745451.0,0.0,0.0
11:13:13,744633.0,0.0,0.0
11:13:13,747106.0,0.0,0.0
11:13:13,743895.0,0.0,0.0
11:13:13,746631.0,0.0,0.0
11:13:13,745407.0,0.0,0.0
11:13:13,744624.0,0.0,0.0
11:13:13,747066.0,0.0,0.0
11:13:13,743870.0,0.0,0.0
11:13:13,746592.0,0.0,0.0
11:13:13,745359.0,0.0,0.0
11:13:13,744613.0,0.0,0.0
11:13:13,747036.0,0.0,0.0
11:13:13,743831.0,0.0,0.0
11:13:13,746582.0,0.0,0.0
11:13:13,745272.0,0.0,0.0
11:13:13,744601.0,0.0,0.0
11:13:13,747004.0,0.0,0.0
11:13:13,743792.0,0.0,0.0
11:13:13,746586.0,0.0,0.0
11:13:14,745248.0,0.0,0.0
11:13:14,744630.0,0.0,0.0
11:13:14,747004.0,0.0,0.0
11:13:14,743774.0,0.0,0.0
11:13:14,746586.0,0.0,0.0
11:13:14,745243.0,0.0,0.0
11:13:14,744647.0,0.0,0.0
11:13:14,746982.0,0.0,0.0
11:13:14,743778.0,0.0,0.0
11:13:14,746598.0,0.0,0.0
11:13:14,745183.0,0.0,0.0
11:13:14,744635.0,0.0,0.0
11:13:14,746954.0,0.0,0.0
11:13:14,743759.0,0.0,0.0
11:13:14,746602.0,0.0,0.0
11:13:14,745140.0,0.0,0.0
11:13:14,744594.0,0.0,0.0
11:13:14,746881.0,0.0,0.0
11:13:14,743712.0,0.0,0.0
11:13:14,746599.0,0.0,0.0
11:13:14,745171.0,0.0,0.0
11:13:14,744699.0,0.0,0.0
11:13:14,746910.0,0.0,0.0
11:13:14,743708.0,0.0,0.0
11:13:14,746592.0,0.0,0.0
11:13:14,745058.0,0.0,0.0
11:13:14,744614.0,0.0,0.0
11:13:14,746844.0,0.0,0.0
11:13:14,743657.0,0.0,0.0
11:13:14,746554.0,0.0,0.0
11:13:14,744993.0,0.0,0.0
11:13:14,744605.0,0.0,0.0
11:13:14,746799.0,0.0,0.0
11:13:14,743633.0,0.0,0.0
11:13:14,746544.0,0.0,0.0
11:13:14,744909.0,0.0,0.0
11:13:14,744548.0,0.0,0.0
11:13:14,746717.0,0.0,0.0
11:13:14,743578.0,0.0,0.0
11:13:14,746490.0,0.0,0.0
11:13:14,744820.0,0.0,0.0
11:13:14,744509.0,0.0,0.0
11:13:14,746634.0,0.0,0.0
11:13:14,743479.0,0.0,0.0
11:13:14,746419.0,0.0,0.0
11:13:14,744733.0,0.0,0.0
11:13:14,744460.0,0.0,0.0
11:13:14,746581.0,0.0,0.0
11:13:14,743431.0,0.0,0.0
11:13:14,746386.0,0.0,0.0
11:13:14,744666.0,0.0,0.0
11:13:14,744427.0,0.0,0.0
11:13:14,746489.0,0.0,0.0
11:13:14,743347.0,0.0,0.0
11:13:14,746321.0,0.0,0.0
11:13:14,744600.0,0.0,0.0
11:13:14,744407.0,0.0,0.0
11:13:14,746419.0,0.0,0.0
11:13:14,743332.0,0.0,0.0
11:13:14,746355.0,0.0,0.0
11:13:14,744541.0,0.0,0.0
11:13:14,744425.0,0.0,0.0
11:13:14,746416.0,0.0,0.0
11:13:14,743316.0,0.0,0.0
11:13:14,746341.0,0.0,0.0
11:13:14,744499.0,0.0,0.0
11:13:14,744403.0,0.0,0.0
11:13:14,746365.0,0.0,0.0
11:13:14,743274.0,0.0,0.0
11:13:14,746324.0,0.0,0.0
11:13:14,744454.0,0.0,0.0
11:13:14,744422.0,0.0,0.0
11:13:14,746358.0,0.0,0.0
11:13:14,743249.0,0.0,0.0
11:13:14,746285.0,0.0,0.0
11:13:14,744393.0,0.0,0.0
11:13:14,744376.0,0.0,0.0
11:13:14,746253.0,0.0,0.0
11:13:14,743231.0,0.0,0.0
11:13:14,746291.0,0.0,0.0
11:13:14,744377.0,0.0,0.0
11:13:14,744401.0,0.0,0.0
11:13:14,746248.0,0.0,0.0
11:13:14,743215.0,0.0,0.0
11:13:14,746281.0,0.0,0.0
11:13:14,744320.0,0.0,0.0
11:13:14,744390.0,0.0,0.0
11:13:14,746218.0,0.0,0.0
11:13:14,743176.0,0.0,0.0
11:13:14,746293.0,0.0,0.0
11:13:14,744280.0,0.0,0.0
11:13:14,744389.0,0.0,0.0
11:13:14,746149.0,0.0,0.0
11:13:14,743146.0,0.0,0.0
11:13:14,746274.0,0.0,0.0
11:13:14,744209.0,0.0,0.0
11:13:14,744349.0,0.0,0.0
11:13:14,746075.0,0.0,0.0
11:13:14,743081.0,0.0,0.0
11:13:14,746178.0,0.0,0.0
11:13:14,744101.0,0.0,0.0
11:13:14,744300.0,0.0,0.0
11:13:14,746011.0,0.0,0.0
11:13:14,743013.0,0.0,0.0
11:13:14,746129.0,0.0,0.0
11:13:14,743991.0,0.0,0.0
11:13:14,744228.0,0.0,0.0
11:13:14,745897.0,0.0,0.0
11:13:14,742890.0,0.0,0.0
11:13:14,746051.0,0.0,0.0
11:13:14,743942.0,0.0,0.0
11:13:14,744229.0,0.0,0.0
11:13:14,745856.0,0.0,0.0
11:13:14,742874.0,0.0,0.0
11:13:14,746003.0,0.0,0.0
11:13:14,743811.0,0.0,0.0
11:13:14,744153.0,0.0,0.0
11:13:14,745749.0,0.0,0.0
11:13:14,742765.0,0.0,0.0
11:13:14,745908.0,0.0,0.0
11:13:14,743707.0,0.0,0.0
11:13:14,744094.0,0.0,0.0
11:13:14,745616.0,0.0,0.0
11:13:14,742697.0,0.0,0.0
11:13:14,745864.0,0.0,0.0
11:13:15,743601.0,0.0,0.0
11:13:15,744017.0,0.0,0.0
11:13:15,745531.0,0.0,0.0
11:13:15,742608.0,0.0,0.0
11:13:15,745759.0,0.0,0.0
11:13:15,743523.0,0.0,0.0
11:13:15,743984.0,0.0,0.0
11:13:15,745463.0,0.0,0.0
11:13:15,742593.0,0.0,0.0
11:13:15,745742.0,0.0,0.0
11:13:15,743411.0,0.0,0.0
11:13:15,743929.0,0.0,0.0
11:13:15,745412.0,0.0,0.0
11:13:15,742561.0,0.0,0.0
11:13:15,745729.0,0.0,0.0
11:13:15,743390.0,0.0,0.0
11:13:15,743927.0,0.0,0.0
11:13:15,745298.0,0.0,0.0
11:13:15,742468.0,0.0,0.0
11:13:15,745698.0,0.0,0.0
11:13:15,743305.0,0.0,0.0
11:13:15,743879.0,0.0,0.0
11:13:15,745242.0,0.0,0.0
11:13:15,742419.0,0.0,0.0
11:13:15,745629.0,0.0,0.0
11:13:15,743256.0,0.0,0.0
11:13:15,743878.0,0.0,0.0
11:13:15,745221.0,0.0,0.0
11:13:15,742398.0,0.0,0.0
11:13:15,745611.0,0.0,0.0
11:13:15,743176.0,0.0,0.0
11:13:15,743868.0,0.0,0.0
11:13:15,745179.0,0.0,0.0
11:13:15,742382.0,0.0,0.0
11:13:15,745583.0,0.0,0.0
11:13:15,743138.0,0.0,0.0
11:13:15,743839.0,0.0,0.0
11:13:15,745095.0,0.0,0.0
11:13:15,742341.0,0.0,0.0
11:13:15,745569.0,0.0,0.0
11:13:15,743092.0,0.0,0.0
11:13:15,743849.0,0.0,0.0
11:13:15,745070.0,0.0,0.0
11:13:15,742347.0,0.0,0.0
11:13:15,745521.0,0.0,0.0
11:13:15,742978.0,0.0,0.0
11:13:15,743769.0,0.0,0.0
11:13:15,744979.0,0.0,0.0
11:13:15,742324.0,0.0,0.0
11:13:15,745591.0,0.0,0.0
11:13:15,742991.0,0.0,0.0
11:13:15,743808.0,0.0,0.0
11:13:15,744956.0,0.0,0.0
11:13:15,742276.0,0.0,0.0
11:13:15,745465.0,0.0,0.0
11:13:15,742900.0,0.0,0.0
11:13:15,743812.0,0.0,0.0
11:13:15,744913.0,0.0,0.0
11:13:15,742227.0,0.0,0.0
11:13:15,745493.0,0.0,0.0
11:13:15,742942.0,0.0,0.0
11:13:15,743836.0,0.0,0.0
11:13:15,744903.0,0.0,0.0
11:13:15,742224.0,0.0,0.0
11:13:15,745445.0,0.0,0.0
11:13:15,742814.0,0.0,0.0
11:13:15,743739.0,0.0,0.0
11:13:15,744733.0,0.0,0.0
11:13:15,742111.0,0.0,0.0
11:13:15,745347.0,0.0,0.0
11:13:15,742698.0,0.0,0.0
11:13:15,743704.0,0.0,0.0
11:13:15,744660.0,0.0,0.0
11:13:15,742039.0,0.0,0.0
11:13:15,745274.0,0.0,0.0
11:13:15,742643.0,0.0,0.0
11:13:15,743659.0,0.0,0.0
11:13:15,744581.0,0.0,0.0
11:13:15,742011.0,0.0,0.0
11:13:15,745245.0,0.0,0.0
11:13:15,742554.0,0.0,0.0
11:13:15,743628.0,0.0,0.0
11:13:15,744523.0,0.0,0.0
11:13:15,741966.0,0.0,0.0
11:13:15,745216.0,0.0,0.0
11:13:15,742506.0,0.0,0.0
11:13:15,743633.0,0.0,0.0
11:13:15,744460.0,0.0,0.0
11:13:15,741955.0,0.0,0.0
11:13:15,745204.0,0.0,0.0
11:13:15,742458.0,0.0,0.0
11:13:15,743626.0,0.0,0.0
11:13:15,744446.0,0.0,0.0
11:13:15,741980.0,0.0,0.0
11:13:15,745184.0,0.0,0.0
11:13:15,742414.0,0.0,0.0
11:13:15,743636.0,0.0,0.0
11:13:15,744431.0,0.0,0.0
11:13:15,741950.0,0.0,0.0
11:13:15,745174.0,0.0,0.0
11:13:15,742400.0,0.0,0.0
11:13:15,743613.0,0.0,0.0
11:13:15,744360.0,0.0,0.0
11:13:15,741937.0,0.0,0.0
11:13:15,745154.0,0.0,0.0
11:13:15,742376.0,0.0,0.0
11:13:15,743644.0,0.0,0.0
11:13:15,744343.0,0.0,0.0
11:13:15,741944.0,0.0,0.0
11:13:15,745161.0,0.0,0.0
11:13:15,742333.0,0.0,0.0
11:13:15,743645.0,0.0,0.0
11:13:15,744280.0,0.0,0.0
11:13:15,741926.0,0.0,0.0
11:13:15,745173.0,0.0,0.0
11:13:15,742300.0,0.0,0.0
11:13:15,743638.0,0.0,0.0
11:13:15,744238.0,0.0,0.0
11:13:15,741898.0,0.0,0.0
11:13:15,745092.0,0.0,0.0
11:13:15,742206.0,0.0,0.0
11:13:15,743632.0,0.0,0.0
11:13:15,744204.0,0.0,0.0
11:13:15,741894.0,0.0,0.0
11:13:15,745093.0,0.0,0.0
11:13:16,742214.0,0.0,0.0
11:13:16,743673.0,0.0,0.0
11:13:16,744178.0,0.0,0.0
11:13:16,741894.0,0.0,0.0
11:13:16,745097.0,0.0,0.0
11:13:16,742201.0,0.0,0.0
11:13:16,743676.0,0.0,0.0
11:13:16,744141.0,0.0,0.0
11:13:16,741878.0,0.0,0.0
11:13:16,745093.0,0.0,0.0
11:13:16,742182.0,0.0,0.0
11:13:16,743693.0,0.0,0.0
11:13:16,744120.0,0.0,0.0
11:13:16,741886.0,0.0,0.0
11:13:16,745068.0,0.0,0.0
11:13:16,742143.0,0.0,0.0
11:13:16,743713.0,0.0,0.0
11:13:16,744086.0,0.0,0.0
11:13:16,741910.0,0.0,0.0
11:13:16,745096.0,0.0,0.0
11:13:16,742128.0,0.0,0.0
11:13:16,743708.0,0.0,0.0
11:13:16,744063.0,0.0,0.0
11:13:16,741891.0,0.0,0.0
11:13:16,745056.0,0.0,0.0
11:13:16,742097.0,0.0,0.0
11:13:16,743727.0,0.0,0.0
11:13:16,744059.0,0.0,0.0
11:13:16,741898.0,0.0,0.0
11:13:16,745061.0,0.0,0.0
11:13:16,742069.0,0.0,0.0
11:13:16,743712.0,0.0,0.0
11:13:16,744000.0,0.0,0.0
11:13:16,741893.0,0.0,0.0
11:13:16,745032.0,0.0,0.0
11:13:16,742041.0,0.0,0.0
11:13:16,743757.0,0.0,0.0
11:13:16,743990.0,0.0,0.0
11:13:16,741878.0,0.0,0.0
11:13:16,745030.0,0.0,0.0
11:13:16,741991.0,0.0,0.0
11:13:16,743754.0,0.0,0.0
11:13:16,743949.0,0.0,0.0
11:13:16,741881.0,0.0,0.0
11:13:16,745048.0,0.0,0.0
11:13:16,741973.0,0.0,0.0
11:13:16,743756.0,0.0,0.0
11:13:16,743922.0,0.0,0.0
11:13:16,741896.0,0.0,0.0
11:13:16,745011.0,0.0,0.0
11:13:16,741967.0,0.0,0.0
11:13:16,743805.0,0.0,0.0
11:13:16,743884.0,0.0,0.0
11:13:16,741898.0,0.0,0.0
11:13:16,745021.0,0.0,0.0
11:13:16,741948.0,0.0,0.0
11:13:16,743767.0,0.0,0.0
11:13:16,743823.0,0.0,0.0
11:13:16,741899.0,0.0,0.0
11:13:16,745020.0,0.0,0.0
11:13:16,741909.0,0.0,0.0
11:13:16,743799.0,0.0,0.0
11:13:16,743799.0,0.0,0.0
11:13:16,741863.0,0.0,0.0
11:13:16,744959.0,0.0,0.0
11:13:16,741866.0,0.0,0.0
11:13:16,743811.0,0.0,0.0
11:13:16,743774.0,0.0,0.0
11:13:16,741892.0,0.0,0.0
11:13:16,744999.0,0.0,0.0
11:13:16,741889.0,0.0,0.0
11:13:16,743809.0,0.0,0.0
11:13:16,743738.0,0.0,0.0
11:13:16,741894.0,0.0,0.0
11:13:16,744971.0,0.0,0.0
11:13:16,741824.0,0.0,0.0
11:13:16,743797.0,0.0,0.0
11:13:16,743669.0,0.0,0.0
11:13:16,741966.0,0.0,0.0
11:13:16,745071.0,0.0,0.0
11:13:16,741894.0,0.0,0.0
11:13:16,743882.0,0.0,0.0
11:13:16,743711.0,0.0,0.0
11:13:16,741923.0,0.0,0.0
11:13:16,744977.0,0.0,0.0
11:13:16,741817.0,0.0,0.0
11:13:16,743861.0,0.0,0.0
11:13:16,743697.0,0.0,0.0
11:13:16,741929.0,0.0,0.0
11:13:16,744949.0,0.0,0.0
11:13:16,741791.0,0.0,0.0
11:13:16,743885.0,0.0,0.0
11:13:16,743628.0,0.0,0.0
11:13:16,741914.0,0.0,0.0
11:13:16,744927.0,0.0,0.0
11:13:16,741754.0,0.0,0.0
11:13:16,743903.0,0.0,0.0
11:13:16,743589.0,0.0,0.0
11:13:16,741863.0,0.0,0.0
11:13:16,744858.0,0.0,0.0
11:13:16,741639.0,0.0,0.0
11:13:16,743776.0,0.0,0.0
11:13:16,743435.0,0.0,0.0
11:13:16,741796.0,0.0,0.0
11:13:16,744816.0,0.0,0.0
11:13:16,741623.0,0.0,0.0
11:13:16,743788.0,0.0,0.0
11:13:16,743414.0,0.0,0.0
11:13:16,741774.0,0.0,0.0
11:13:16,744722.0,0.0,0.0
11:13:16,741484.0,0.0,0.0
11:13:16,743703.0,0.0,0.0
11:13:16,743299.0,0.0,0.0
11:13:16,741733.0,0.0,0.0
11:13:16,744699.0,0.0,0.0
11:13:16,741497.0,0.0,0.0
11:13:16,743733.0,0.0,0.0
11:13:16,743296.0,0.0,0.0
11:13:16,741743.0,0.0,0.0
11:13:16,744672.0,0.0,0.0
11:13:16,741464.0,0.0,0.0
11:13:16,743764.0,0.0,0.0
11:13:16,743257.0,0.0,0.0
11:13:16,741761.0,0.0,0.0
11:13:16,744716.0,0.0,0.0
11:13:17,741451.0,0.0,0.0
11:13:17,743764.0,0.0,0.0
11:13:17,743224.0,0.0,0.0
11:13:17,741784.0,0.0,0.0
11:13:17,744679.0,0.0,0.0
11:13:17,741453.0,0.0,0.0
11:13:17,743755.0,0.0,0.0
11:13:17,743216.0,0.0,0.0
11:13:17,741796.0,0.0,0.0
11:13:17,744645.0,0.0,0.0
11:13:17,741427.0,0.0,0.0
11:13:17,743790.0,0.0,0.0
11:13:17,743175.0,0.0,0.0
11:13:17,741795.0,0.0,0.0
11:13:17,744660.0,0.0,0.0
11:13:17,741401.0,0.0,0.0
11:13:17,743810.0,0.0,0.0
11:13:17,743205.0,0.0,0.0
11:13:17,741841.0,0.0,0.0
11:13:17,744648.0,0.0,0.0
11:13:17,741434.0,0.0,0.0
11:13:17,743877.0,0.0,0.0
11:13:17,743204.0,0.0,0.0
11:13:17,741889.0,0.0,0.0
11:13:17,744678.0,0.0,0.0
11:13:17,741441.0,0.0,0.0
11:13:17,743884.0,0.0,0.0
11:13:17,743185.0,0.0,0.0
11:13:17,741905.0,0.0,0.0
11:13:17,744707.0,0.0,0.0
11:13:17,741438.0,0.0,0.0
11:13:17,743924.0,0.0,0.0
11:13:17,743146.0,0.0,0.0
11:13:17,741935.0,0.0,0.0
11:13:17,744689.0,0.0,0.0
11:13:17,741444.0,0.0,0.0
11:13:17,743951.0,0.0,0.0
11:13:17,743131.0,0.0,0.0
11:13:17,741979.0,0.0,0.0
11:13:17,744719.0,0.0,0.0
11:13:17,741439.0,0.0,0.0
11:13:17,743991.0,0.0,0.0
11:13:17,743144.0,0.0,0.0
11:13:17,741987.0,0.0,0.0
11:13:17,744708.0,0.0,0.0
11:13:17,741438.0,0.0,0.0
11:13:17,744009.0,0.0,0.0
11:13:17,743108.0,0.0,0.0
11:13:17,741996.0,0.0,0.0
11:13:17,744702.0,0.0,0.0
11:13:17,741454.0,0.0,0.0
11:13:17,744035.0,0.0,0.0
11:13:17,743106.0,0.0,0.0
11:13:17,742016.0,0.0,0.0
11:13:17,744703.0,0.0,0.0
11:13:17,741458.0,0.0,0.0
11:13:17,744050.0,0.0,0.0
11:13:17,743073.0,0.0,0.0
11:13:17,742083.0,0.0,0.0
11:13:17,744733.0,0.0,0.0
11:13:17,741468.0,0.0,0.0
11:13:17,744138.0,0.0,0.0
11:13:17,743097.0,0.0,0.0
11:13:17,742094.0,0.0,0.0
11:13:17,744701.0,0.0,0.0
11:13:17,741465.0,0.0,0.0
11:13:17,744158.0,0.0,0.0
11:13:17,743069.0,0.0,0.0
11:13:17,742119.0,0.0,0.0
11:13:17,744706.0,0.0,0.0
11:13:17,741442.0,0.0,0.0
11:13:17,744154.0,0.0,0.0
11:13:17,743022.0,0.0,0.0
11:13:17,742108.0,0.0,0.0
11:13:17,744681.0,0.0,0.0
11:13:17,741428.0,0.0,0.0
11:13:17,744123.0,0.0,0.0
11:13:17,742983.0,0.0,0.0
11:13:17,742156.0,0.0,0.0
11:13:17,744714.0,0.0,0.0
11:13:17,741419.0,0.0,0.0
11:13:17,744165.0,0.0,0.0
11:13:17,742979.0,0.0,0.0
11:13:17,742174.0,0.0,0.0
11:13:17,744694.0,0.0,0.0
11:13:17,741451.0,0.0,0.0
11:13:17,744198.0,0.0,0.0
11:13:17,742969.0,0.0,0.0
11:13:17,742208.0,0.0,0.0
11:13:17,744688.0,0.0,0.0
11:13:17,741451.0,0.0,0.0
11:13:17,744243.0,0.0,0.0
11:13:17,742969.0,0.0,0.0
11:13:17,742220.0,0.0,0.0
11:13:17,744670.0,0.0,0.0
11:13:17,741408.0,0.0,0.0
11:13:17,744234.0,0.0,0.0
11:13:17,742918.0,0.0,0.0
11:13:17,742270.0,0.0,0.0
11:13:17,744678.0,0.0,0.0
11:13:17,741401.0,0.0,0.0
11:13:17,744256.0,0.0,0.0
11:13:17,742931.0,0.0,0.0
11:13:17,742294.0,0.0,0.0
11:13:17,744686.0,0.0,0.0
11:13:17,741443.0,0.0,0.0
11:13:17,744231.0,0.0,0.0
11:13:17,742848.0,0.0,0.0
11:13:17,742287.0,0.0,0.0
11:13:17,744735.0,0.0,0.0
11:13:17,741484.0,0.0,0.0
11:13:17,744393.0,0.0,0.0
11:13:17,742919.0,0.0,0.0
11:13:17,742334.0,0.0,0.0
11:13:17,744687.0,0.0,0.0
11:13:17,741471.0,0.0,0.0
11:13:17,744388.0,0.0,0.0
11:13:17,742891.0,0.0,0.0
11:13:17,742388.0,0.0,0.0
11:13:17,744673.0,0.0,0.0
11:13:17,741434.0,0.0,0.0
11:13:17,744321.0,0.0,0.0
11:13:17,742816.0,0.0,0.0
11:13:17,742353.0,0.0,0.0
11:13:17,744635.0,0.0,0.0
11:13:18,741406.0,0.0,0.0
11:13:18,744319.0,0.0,0.0
11:13:18,742774.0,0.0,0.0
11:13:18,742349.0,0.0,0.0
11:13:18,744591.0,0.0,0.0
11:13:18,741376.0,0.0,0.0
11:13:18,744317.0,0.0,0.0
11:13:18,742711.0,0.0,0.0
11:13:18,742323.0,0.0,0.0
11:13:18,744506.0,0.0,0.0
11:13:18,741304.0,0.0,0.0
11:13:18,744269.0,0.0,0.0
11:13:18,742639.0,0.0,0.0
11:13:18,742284.0,0.0,0.0
11:13:18,744469.0,0.0,0.0
11:13:18,741278.0,0.0,0.0
11:13:18,744276.0,0.0,0.0
11:13:18,742584.0,0.0,0.0
11:13:18,742301.0,0.0,0.0
11:13:18,744433.0,0.0,0.0
11:13:18,741246.0,0.0,0.0
11:13:18,744228.0,0.0,0.0
11:13:18,742551.0,0.0,0.0
11:13:18,742322.0,0.0,0.0
11:13:18,744439.0,0.0,0.0
11:13:18,741261.0,0.0,0.0
11:13:18,744291.0,0.0,0.0
11:13:18,742556.0,0.0,0.0
11:13:18,742353.0,0.0,0.0
11:13:18,744408.0,0.0,0.0
11:13:18,741239.0,0.0,0.0
11:13:18,744286.0,0.0,0.0
11:13:18,742509.0,0.0,0.0
11:13:18,742343.0,0.0,0.0
11:13:18,744387.0,0.0,0.0
11:13:18,741283.0,0.0,0.0
11:13:18,744371.0,0.0,0.0
11:13:18,742514.0,0.0,0.0
11:13:18,742393.0,0.0,0.0
11:13:18,744426.0,0.0,0.0
11:13:18,741261.0,0.0,0.0
11:13:18,744339.0,0.0,0.0
11:13:18,742501.0,0.0,0.0
11:13:18,742454.0,0.0,0.0
11:13:18,744439.0,0.0,0.0
11:13:18,741302.0,0.0,0.0
11:13:18,744363.0,0.0,0.0
11:13:18,742496.0,0.0,0.0
11:13:18,742474.0,0.0,0.0
11:13:18,744419.0,0.0,0.0
11:13:18,741306.0,0.0,0.0
11:13:18,744431.0,0.0,0.0
11:13:18,742459.0,0.0,0.0
11:13:18,742469.0,0.0,0.0
11:13:18,744417.0,0.0,0.0
11:13:18,741296.0,0.0,0.0
11:13:18,744416.0,0.0,0.0
11:13:18,742452.0,0.0,0.0
11:13:18,742533.0,0.0,0.0
11:13:18,744416.0,0.0,0.0
11:13:18,741319.0,0.0,0.0
11:13:18,744464.0,0.0,0.0
11:13:18,742478.0,0.0,0.0
11:13:18,742508.0,0.0,0.0
11:13:18,744378.0,0.0,0.0
11:13:18,741361.0,0.0,0.0
11:13:18,744491.0,0.0,0.0
11:13:18,742433.0,0.0,0.0
11:13:18,742593.0,0.0,0.0
11:13:18,744416.0,0.0,0.0
11:13:18,741361.0,0.0,0.0
11:13:18,744518.0,0.0,0.0
11:13:18,742436.0,0.0,0.0
11:13:18,742629.0,0.0,0.0
11:13:18,744410.0,0.0,0.0
11:13:18,741333.0,0.0,0.0
11:13:18,744509.0,0.0,0.0
11:13:18,742403.0,0.0,0.0
11:13:18,742633.0,0.0,0.0
11:13:18,744369.0,0.0,0.0
11:13:18,741363.0,0.0,0.0
11:13:18,744581.0,0.0,0.0
11:13:18,742429.0,0.0,0.0
11:13:18,742698.0,0.0,0.0
11:13:18,744387.0,0.0,0.0
11:13:18,741370.0,0.0,0.0
11:13:18,744546.0,0.0,0.0
11:13:18,742387.0,0.0,0.0
11:13:18,742714.0,0.0,0.0
11:13:18,744361.0,0.0,0.0
11:13:18,741361.0,0.0,0.0
11:13:18,744558.0,0.0,0.0
11:13:18,742324.0,0.0,0.0
11:13:18,742703.0,0.0,0.0
11:13:18,744376.0,0.0,0.0
11:13:18,741388.0,0.0,0.0
11:13:18,744556.0,0.0,0.0
11:13:18,742334.0,0.0,0.0
11:13:18,742741.0,0.0,0.0
11:13:18,744320.0,0.0,0.0
11:13:18,741383.0,0.0,0.0
11:13:18,744568.0,0.0,0.0
11:13:18,742301.0,0.0,0.0
11:13:18,742789.0,0.0,0.0
11:13:18,744337.0,0.0,0.0
11:13:18,741403.0,0.0,0.0
11:13:18,744608.0,0.0,0.0
11:13:18,742322.0,0.0,0.0
11:13:18,742832.0,0.0,0.0
11:13:18,744299.0,0.0,0.0
11:13:18,741383.0,0.0,0.0
11:13:18,744655.0,0.0,0.0
11:13:18,742291.0,0.0,0.0
11:13:18,742814.0,0.0,0.0
11:13:18,744313.0,0.0,0.0
11:13:18,741418.0,0.0,0.0
11:13:18,744644.0,0.0,0.0
11:13:18,742248.0,0.0,0.0
11:13:18,742828.0,0.0,0.0
11:13:18,744241.0,0.0,0.0
11:13:18,741401.0,0.0,0.0
11:13:18,744629.0,0.0,0.0
11:13:18,742220.0,0.0,0.0
11:13:18,742873.0,0.0,0.0
11:13:18,744266.0,0.0,0.0
11:13:19,741416.0,0.0,0.0
11:13:19,744652.0,0.0,0.0
11:13:19,742224.0,0.0,0.0
11:13:19,742910.0,0.0,0.0
11:13:19,744237.0,0.0,0.0
11:13:19,741419.0,0.0,0.0
11:13:19,744677.0,0.0,0.0
11:13:19,742219.0,0.0,0.0
11:13:19,742916.0,0.0,0.0
11:13:19,744209.0,0.0,0.0
11:13:19,741399.0,0.0,0.0
11:13:19,744601.0,0.0,0.0
11:13:19,742189.0,0.0,0.0
11:13:19,743046.0,0.0,0.0
11:13:19,744287.0,0.0,0.0
11:13:19,741444.0,0.0,0.0
11:13:19,744693.0,0.0,0.0
11:13:19,742202.0,0.0,0.0
11:13:19,743010.0,0.0,0.0
11:13:19,744201.0,0.0,0.0
11:13:19,741438.0,0.0,0.0
11:13:19,744708.0,0.0,0.0
11:13:19,742160.0,0.0,0.0
11:13:19,742991.0,0.0,0.0
11:13:19,744163.0,0.0,0.0
11:13:19,741428.0,0.0,0.0
11:13:19,744734.0,0.0,0.0
11:13:19,742146.0,0.0,0.0
11:13:19,743000.0,0.0,0.0
11:13:19,744113.0,0.0,0.0
11:13:19,741428.0,0.0,0.0
11:13:19,744670.0,0.0,0.0
11:13:19,742060.0,0.0,0.0
11:13:19,742964.0,0.0,0.0
11:13:19,744006.0,0.0,0.0
11:13:19,741349.0,0.0,0.0
11:13:19,744632.0,0.0,0.0
11:13:19,741968.0,0.0,0.0
11:13:19,742944.0,0.0,0.0
11:13:19,743974.0,0.0,0.0
11:13:19,741294.0,0.0,0.0
11:13:19,744564.0,0.0,0.0
11:13:19,741886.0,0.0,0.0
11:13:19,742898.0,0.0,0.0
11:13:19,743898.0,0.0,0.0
11:13:19,741265.0,0.0,0.0
11:13:19,744548.0,0.0,0.0
11:13:19,741824.0,0.0,0.0
11:13:19,742904.0,0.0,0.0
11:13:19,743878.0,0.0,0.0
11:13:19,741299.0,0.0,0.0
11:13:19,744554.0,0.0,0.0
11:13:19,741826.0,0.0,0.0
11:13:19,742961.0,0.0,0.0
11:13:19,743874.0,0.0,0.0
11:13:19,741287.0,0.0,0.0
11:13:19,744548.0,0.0,0.0
11:13:19,741799.0,0.0,0.0
11:13:19,742973.0,0.0,0.0
11:13:19,743833.0,0.0,0.0
11:13:19,741268.0,0.0,0.0
11:13:19,744538.0,0.0,0.0
11:13:19,741773.0,0.0,0.0
11:13:19,742992.0,0.0,0.0
11:13:19,743796.0,0.0,0.0
11:13:19,741297.0,0.0,0.0
11:13:19,744586.0,0.0,0.0
11:13:19,741812.0,0.0,0.0
11:13:19,743038.0,0.0,0.0
11:13:19,743783.0,0.0,0.0
11:13:19,741299.0,0.0,0.0
11:13:19,744573.0,0.0,0.0
11:13:19,741749.0,0.0,0.0
11:13:19,743049.0,0.0,0.0
11:13:19,743784.0,0.0,0.0
11:13:19,741324.0,0.0,0.0
11:13:19,744592.0,0.0,0.0
11:13:19,741753.0,0.0,0.0
11:13:19,743054.0,0.0,0.0
11:13:19,743754.0,0.0,0.0
11:13:19,741310.0,0.0,0.0
11:13:19,744558.0,0.0,0.0
11:13:19,741726.0,0.0,0.0
11:13:19,743118.0,0.0,0.0
11:13:19,743762.0,0.0,0.0
11:13:19,741361.0,0.0,0.0
11:13:19,744608.0,0.0,0.0
11:13:19,741712.0,0.0,0.0
11:13:19,743123.0,0.0,0.0
11:13:19,743734.0,0.0,0.0
11:13:19,741348.0,0.0,0.0
11:13:19,744602.0,0.0,0.0
11:13:19,741726.0,0.0,0.0
11:13:19,743148.0,0.0,0.0
11:13:19,743707.0,0.0,0.0
11:13:19,741353.0,0.0,0.0
11:13:19,744558.0,0.0,0.0
11:13:19,741687.0,0.0,0.0
11:13:19,743141.0,0.0,0.0
11:13:19,743680.0,0.0,0.0
11:13:19,741381.0,0.0,0.0
11:13:19,744627.0,0.0,0.0
11:13:19,741703.0,0.0,0.0
11:13:19,743213.0,0.0,0.0
11:13:19,743693.0,0.0,0.0
11:13:19,741403.0,0.0,0.0
11:13:19,744622.0,0.0,0.0
11:13:19,741651.0,0.0,0.0
11:13:19,743233.0,0.0,0.0
11:13:19,743658.0,0.0,0.0
11:13:19,741373.0,0.0,0.0
11:13:19,744609.0,0.0,0.0
11:13:19,741629.0,0.0,0.0
11:13:19,743214.0,0.0,0.0
11:13:19,743629.0,0.0,0.0
11:13:19,741421.0,0.0,0.0
11:13:19,744646.0,0.0,0.0
11:13:19,741621.0,0.0,0.0
11:13:19,743227.0,0.0,0.0
11:13:19,743583.0,0.0,0.0
11:13:19,741418.0,0.0,0.0
11:13:19,744674.0,0.0,0.0
11:13:19,741649.0,0.0,0.0
11:13:19,743321.0,0.0,0.0
11:13:19,743622.0,0.0,0.0
11:13:20,741436.0,0.0,0.0
11:13:20,744645.0,0.0,0.0
11:13:20,741598.0,0.0,0.0
11:13:20,743276.0,0.0,0.0
11:13:20,743556.0,0.0,0.0
11:13:20,741454.0,0.0,0.0
11:13:20,744679.0,0.0,0.0
11:13:20,741613.0,0.0,0.0
11:13:20,743340.0,0.0,0.0
11:13:20,743568.0,0.0,0.0
11:13:20,741490.0,0.0,0.0
11:13:20,744686.0,0.0,0.0
11:13:20,741574.0,0.0,0.0
11:13:20,743341.0,0.0,0.0
11:13:20,743500.0,0.0,0.0
11:13:20,741487.0,0.0,0.0
11:13:20,744623.0,0.0,0.0
11:13:20,741537.0,0.0,0.0
11:13:20,743386.0,0.0,0.0
11:13:20,743490.0,0.0,0.0
11:13:20,741481.0,0.0,0.0
11:13:20,744676.0,0.0,0.0
11:13:20,741558.0,0.0,0.0
11:13:20,743415.0,0.0,0.0
11:13:20,743486.0,0.0,0.0
11:13:20,741530.0,0.0,0.0
11:13:20,744656.0,0.0,0.0
11:13:20,741539.0,0.0,0.0
11:13:20,743431.0,0.0,0.0
11:13:20,743444.0,0.0,0.0
11:13:20,741503.0,0.0,0.0
11:13:20,744621.0,0.0,0.0
11:13:20,741479.0,0.0,0.0
11:13:20,743377.0,0.0,0.0
11:13:20,743412.0,0.0,0.0
11:13:20,741560.0,0.0,0.0
11:13:20,744738.0,0.0,0.0
11:13:20,741548.0,0.0,0.0
11:13:20,743476.0,0.0,0.0
11:13:20,743422.0,0.0,0.0
11:13:20,741534.0,0.0,0.0
11:13:20,744625.0,0.0,0.0
11:13:20,741480.0,0.0,0.0
11:13:20,743443.0,0.0,0.0
11:13:20,743347.0,0.0,0.0
11:13:20,741553.0,0.0,0.0
11:13:20,744631.0,0.0,0.0
11:13:20,741463.0,0.0,0.0
11:13:20,743496.0,0.0,0.0
11:13:20,743338.0,0.0,0.0
11:13:20,741553.0,0.0,0.0
11:13:20,744603.0,0.0,0.0
11:13:20,741379.0,0.0,0.0
11:13:20,743425.0,0.0,0.0
11:13:20,743234.0,0.0,0.0
11:13:20,741449.0,0.0,0.0
11:13:20,744491.0,0.0,0.0
11:13:20,741300.0,0.0,0.0
11:13:20,743398.0,0.0,0.0
11:13:20,743148.0,0.0,0.0
11:13:20,741379.0,0.0,0.0
11:13:20,744428.0,0.0,0.0
11:13:20,741229.0,0.0,0.0
11:13:20,743333.0,0.0,0.0
11:13:20,743033.0,0.0,0.0
11:13:20,741379.0,0.0,0.0
11:13:20,744408.0,0.0,0.0
11:13:20,741194.0,0.0,0.0
11:13:20,743354.0,0.0,0.0
11:13:20,743043.0,0.0,0.0
11:13:20,741383.0,0.0,0.0
11:13:20,744406.0,0.0,0.0
11:13:20,741168.0,0.0,0.0
11:13:20,743338.0,0.0,0.0
11:13:20,742992.0,0.0,0.0
11:13:20,741378.0,0.0,0.0
11:13:20,744384.0,0.0,0.0
11:13:20,741134.0,0.0,0.0
11:13:20,743381.0,0.0,0.0
11:13:20,742982.0,0.0,0.0
11:13:20,741386.0,0.0,0.0
11:13:20,744334.0,0.0,0.0
11:13:20,741111.0,0.0,0.0
11:13:20,743363.0,0.0,0.0
11:13:20,742938.0,0.0,0.0
11:13:20,741391.0,0.0,0.0
11:13:20,744341.0,0.0,0.0
11:13:20,741072.0,0.0,0.0
11:13:20,743386.0,0.0,0.0
11:13:20,742921.0,0.0,0.0
11:13:20,741401.0,0.0,0.0
11:13:20,744316.0,0.0,0.0
11:13:20,741048.0,0.0,0.0
11:13:20,743387.0,0.0,0.0
11:13:20,742859.0,0.0,0.0
11:13:20,741426.0,0.0,0.0
11:13:20,744326.0,0.0,0.0
11:13:20,741079.0,0.0,0.0
11:13:20,743414.0,0.0,0.0
11:13:20,742839.0,0.0,0.0
11:13:20,741429.0,0.0,0.0
11:13:20,744315.0,0.0,0.0
11:13:20,741062.0,0.0,0.0
11:13:20,743414.0,0.0,0.0
11:13:20,742784.0,0.0,0.0
11:13:20,741443.0,0.0,0.0
11:13:20,744297.0,0.0,0.0
11:13:20,741043.0,0.0,0.0
11:13:20,743471.0,0.0,0.0
11:13:20,742788.0,0.0,0.0
11:13:20,741426.0,0.0,0.0
11:13:20,744251.0,0.0,0.0
11:13:20,741018.0,0.0,0.0
11:13:20,743489.0,0.0,0.0
11:13:20,742744.0,0.0,0.0
11:13:20,741443.0,0.0,0.0
11:13:20,744253.0,0.0,0.0
11:13:20,741003.0,0.0,0.0
11:13:20,743495.0,0.0,0.0
11:13:20,742764.0,0.0,0.0
11:13:20,741490.0,0.0,0.0
11:13:20,744296.0,0.0,0.0
11:13:20,741046.0,0.0,0.0
11:13:20,743545.0,0.0,0.0
11:13:20,742696.0,0.0,0.0
11:13:21,741474.0,0.0,0.0
11:13:21,744266.0,0.0,0.0
11:13:21,740996.0,0.0,0.0
11:13:21,743538.0,0.0,0.0
11:13:21,742693.0,0.0,0.0
11:13:21,741529.0,0.0,0.0
11:13:21,744280.0,0.0,0.0
11:13:21,740963.0,0.0,0.0
11:13:21,743539.0,0.0,0.0
11:13:21,742648.0,0.0,0.0
11:13:21,741523.0,0.0,0.0
11:13:21,744269.0,0.0,0.0
11:13:21,740988.0,0.0,0.0
11:13:21,743549.0,0.0,0.0
11:13:21,742628.0,0.0,0.0
11:13:21,741533.0,0.0,0.0
11:13:21,744249.0,0.0,0.0
11:13:21,740957.0,0.0,0.0
11:13:21,743578.0,0.0,0.0
11:13:21,742613.0,0.0,0.0
11:13:21,741562.0,0.0,0.0
11:13:21,744235.0,0.0,0.0
11:13:21,740956.0,0.0,0.0
11:13:21,743603.0,0.0,0.0
11:13:21,742565.0,0.0,0.0
11:13:21,741555.0,0.0,0.0
11:13:21,744238.0,0.0,0.0
11:13:21,740944.0,0.0,0.0
11:13:21,743579.0,0.0,0.0
11:13:21,742536.0,0.0,0.0
11:13:21,741569.0,0.0,0.0
11:13:21,744206.0,0.0,0.0
11:13:21,740946.0,0.0,0.0
11:13:21,743621.0,0.0,0.0
11:13:21,742512.0,0.0,0.0
11:13:21,741610.0,0.0,0.0
11:13:21,744212.0,0.0,0.0
11:13:21,740923.0,0.0,0.0
11:13:21,743626.0,0.0,0.0
11:13:21,742486.0,0.0,0.0
11:13:21,741584.0,0.0,0.0
11:13:21,744176.0,0.0,0.0
11:13:21,740911.0,0.0,0.0
11:13:21,743636.0,0.0,0.0
11:13:21,742418.0,0.0,0.0
11:13:21,741590.0,0.0,0.0
11:13:21,744158.0,0.0,0.0
11:13:21,740891.0,0.0,0.0
11:13:21,743640.0,0.0,0.0
11:13:21,742427.0,0.0,0.0
11:13:21,741631.0,0.0,0.0
11:13:21,744146.0,0.0,0.0
11:13:21,740874.0,0.0,0.0
11:13:21,743607.0,0.0,0.0
11:13:21,742339.0,0.0,0.0
11:13:21,741629.0,0.0,0.0
11:13:21,744181.0,0.0,0.0
11:13:21,740883.0,0.0,0.0
11:13:21,743726.0,0.0,0.0
11:13:21,742427.0,0.0,0.0
11:13:21,741643.0,0.0,0.0
11:13:21,744110.0,0.0,0.0
11:13:21,740846.0,0.0,0.0
11:13:21,743668.0,0.0,0.0
11:13:21,742324.0,0.0,0.0
11:13:21,741645.0,0.0,0.0
11:13:21,744082.0,0.0,0.0
11:13:21,740818.0,0.0,0.0
11:13:21,743666.0,0.0,0.0
11:13:21,742296.0,0.0,0.0
11:13:21,741649.0,0.0,0.0
11:13:21,744099.0,0.0,0.0
11:13:21,740816.0,0.0,0.0
11:13:21,743661.0,0.0,0.0
11:13:21,742228.0,0.0,0.0
11:13:21,741605.0,0.0,0.0
11:13:21,743964.0,0.0,0.0
11:13:21,740673.0,0.0,0.0
11:13:21,743543.0,0.0,0.0
11:13:21,742085.0,0.0,0.0
11:13:21,741528.0,0.0,0.0
11:13:21,743891.0,0.0,0.0
11:13:21,740668.0,0.0,0.0
11:13:21,743569.0,0.0,0.0
11:13:21,742056.0,0.0,0.0
11:13:21,741528.0,0.0,0.0
11:13:21,743854.0,0.0,0.0
11:13:21,740594.0,0.0,0.0
11:13:21,743533.0,0.0,0.0
11:13:21,741992.0,0.0,0.0
11:13:21,741486.0,0.0,0.0
11:13:21,743803.0,0.0,0.0
11:13:21,740570.0,0.0,0.0
11:13:21,743516.0,0.0,0.0
11:13:21,741949.0,0.0,0.0
11:13:21,741529.0,0.0,0.0
11:13:21,743806.0,0.0,0.0
11:13:21,740556.0,0.0,0.0
11:13:21,743534.0,0.0,0.0
11:13:21,741920.0,0.0,0.0
11:13:21,741518.0,0.0,0.0
11:13:21,743739.0,0.0,0.0
11:13:21,740494.0,0.0,0.0
11:13:21,743477.0,0.0,0.0
11:13:21,741862.0,0.0,0.0
11:13:21,741520.0,0.0,0.0
11:13:21,743708.0,0.0,0.0
11:13:21,740479.0,0.0,0.0
11:13:21,743489.0,0.0,0.0
11:13:21,741834.0,0.0,0.0
11:13:21,741514.0,0.0,0.0
11:13:21,743676.0,0.0,0.0
11:13:21,740498.0,0.0,0.0
11:13:21,743491.0,0.0,0.0
11:13:21,741793.0,0.0,0.0
11:13:21,741524.0,0.0,0.0
11:13:21,743698.0,0.0,0.0
11:13:21,740489.0,0.0,0.0
11:13:21,743520.0,0.0,0.0
11:13:21,741791.0,0.0,0.0
11:13:21,741533.0,0.0,0.0
11:13:21,743629.0,0.0,0.0
11:13:21,740446.0,0.0,0.0
11:13:21,743507.0,0.0,0.0
11:13:21,741711.0,0.0,0.0
11:13:22,741516.0,0.0,0.0
11:13:22,743637.0,0.0,0.0
11:13:22,740439.0,0.0,0.0
11:13:22,743492.0,0.0,0.0
11:13:22,741694.0,0.0,0.0
11:13:22,741517.0,0.0,0.0
11:13:22,743585.0,0.0,0.0
11:13:22,740414.0,0.0,0.0
11:13:22,743503.0,0.0,0.0
11:13:22,741681.0,0.0,0.0
11:13:22,741576.0,0.0,0.0
11:13:22,743572.0,0.0,0.0
11:13:22,740433.0,0.0,0.0
11:13:22,743514.0,0.0,0.0
11:13:22,741624.0,0.0,0.0
11:13:22,741535.0,0.0,0.0
11:13:22,743529.0,0.0,0.0
11:13:22,740397.0,0.0,0.0
11:13:22,743490.0,0.0,0.0
11:13:22,741599.0,0.0,0.0
11:13:22,741588.0,0.0,0.0
11:13:22,743522.0,0.0,0.0
11:13:22,740389.0,0.0,0.0
11:13:22,743540.0,0.0,0.0
11:13:22,741577.0,0.0,0.0
11:13:22,741599.0,0.0,0.0
11:13:22,743522.0,0.0,0.0
11:13:22,740418.0,0.0,0.0
11:13:22,743546.0,0.0,0.0
11:13:22,741574.0,0.0,0.0
11:13:22,741619.0,0.0,0.0
11:13:22,743488.0,0.0,0.0
11:13:22,740396.0,0.0,0.0
11:13:22,743541.0,0.0,0.0
11:13:22,741536.0,0.0,0.0
11:13:22,741603.0,0.0,0.0
11:13:22,743459.0,0.0,0.0
11:13:22,740360.0,0.0,0.0
11:13:22,743523.0,0.0,0.0
11:13:22,741459.0,0.0,0.0
11:13:22,741606.0,0.0,0.0
11:13:22,743441.0,0.0,0.0
11:13:22,740357.0,0.0,0.0
11:13:22,743518.0,0.0,0.0
11:13:22,741443.0,0.0,0.0
11:13:22,741626.0,0.0,0.0
11:13:22,743408.0,0.0,0.0
11:13:22,740332.0,0.0,0.0
11:13:22,743538.0,0.0,0.0
11:13:22,741416.0,0.0,0.0
11:13:22,741655.0,0.0,0.0
11:13:22,743403.0,0.0,0.0
11:13:22,740336.0,0.0,0.0
11:13:22,743504.0,0.0,0.0
11:13:22,741363.0,0.0,0.0
11:13:22,741609.0,0.0,0.0
11:13:22,743344.0,0.0,0.0
11:13:22,740306.0,0.0,0.0
11:13:22,743483.0,0.0,0.0
11:13:22,741328.0,0.0,0.0
11:13:22,741633.0,0.0,0.0
11:13:22,743309.0,0.0,0.0
11:13:22,740323.0,0.0,0.0
11:13:22,743528.0,0.0,0.0
11:13:22,741328.0,0.0,0.0
11:13:22,741661.0,0.0,0.0
11:13:22,743294.0,0.0,0.0
11:13:22,740268.0,0.0,0.0
11:13:22,743492.0,0.0,0.0
11:13:22,741266.0,0.0,0.0
11:13:22,741652.0,0.0,0.0
11:13:22,743237.0,0.0,0.0
11:13:22,740300.0,0.0,0.0
11:13:22,743506.0,0.0,0.0
11:13:22,741231.0,0.0,0.0
11:13:22,741633.0,0.0,0.0
11:13:22,743174.0,0.0,0.0
11:13:22,740214.0,0.0,0.0
11:13:22,743418.0,0.0,0.0
11:13:22,741195.0,0.0,0.0
11:13:22,741745.0,0.0,0.0
11:13:22,743287.0,0.0,0.0
11:13:22,740253.0,0.0,0.0
11:13:22,743473.0,0.0,0.0
11:13:22,741152.0,0.0,0.0
11:13:22,741639.0,0.0,0.0
11:13:22,743136.0,0.0,0.0
11:13:22,740216.0,0.0,0.0
11:13:22,743479.0,0.0,0.0
11:13:22,741119.0,0.0,0.0
11:13:22,741673.0,0.0,0.0
11:13:22,743127.0,0.0,0.0
11:13:22,740191.0,0.0,0.0
11:13:22,743432.0,0.0,0.0
11:13:22,741028.0,0.0,0.0
11:13:22,741602.0,0.0,0.0
11:13:22,743018.0,0.0,0.0
11:13:22,740108.0,0.0,0.0
11:13:22,743349.0,0.0,0.0
11:13:22,740978.0,0.0,0.0
11:13:22,741578.0,0.0,0.0
11:13:22,742951.0,0.0,0.0
11:13:22,740066.0,0.0,0.0
11:13:22,743304.0,0.0,0.0
11:13:22,740873.0,0.0,0.0
11:13:22,741541.0,0.0,0.0
11:13:22,742851.0,0.0,0.0
11:13:22,740013.0,0.0,0.0
11:13:22,743251.0,0.0,0.0
11:13:22,740783.0,0.0,0.0
11:13:22,741510.0,0.0,0.0
11:13:22,742806.0,0.0,0.0
11:13:22,739965.0,0.0,0.0
11:13:22,743246.0,0.0,0.0
11:13:22,740739.0,0.0,0.0
11:13:22,741460.0,0.0,0.0
11:13:22,742715.0,0.0,0.0
11:13:22,739918.0,0.0,0.0
11:13:22,743172.0,0.0,0.0
11:13:22,740661.0,0.0,0.0
11:13:22,741451.0,0.0,0.0
11:13:22,742705.0,0.0,0.0
11:13:22,739919.0,0.0,0.0
11:13:22,743190.0,0.0,0.0
11:13:22,740658.0,0.0,0.0
11:13:23,741464.0,0.0,0.0
11:13:23,742637.0,0.0,0.0
11:13:23,739888.0,0.0,0.0
11:13:23,743188.0,0.0,0.0
11:13:23,740610.0,0.0,0.0
11:13:23,741490.0,0.0,0.0
11:13:23,742624.0,0.0,0.0
11:13:23,739894.0,0.0,0.0
11:13:23,743191.0,0.0,0.0
11:13:23,740572.0,0.0,0.0
11:13:23,741442.0,0.0,0.0
11:13:23,742543.0,0.0,0.0
11:13:23,739874.0,0.0,0.0
11:13:23,743136.0,0.0,0.0
11:13:23,740474.0,0.0,0.0
11:13:23,741444.0,0.0,0.0
11:13:23,742514.0,0.0,0.0
11:13:23,739850.0,0.0,0.0
11:13:23,743143.0,0.0,0.0
11:13:23,740508.0,0.0,0.0
11:13:23,741484.0,0.0,0.0
11:13:23,742522.0,0.0,0.0
11:13:23,739851.0,0.0,0.0
11:13:23,743114.0,0.0,0.0
11:13:23,740459.0,0.0,0.0
11:13:23,741497.0,0.0,0.0
11:13:23,742502.0,0.0,0.0
11:13:23,739840.0,0.0,0.0
11:13:23,743121.0,0.0,0.0
11:13:23,740438.0,0.0,0.0
11:13:23,741474.0,0.0,0.0
11:13:23,742428.0,0.0,0.0
11:13:23,739820.0,0.0,0.0
11:13:23,743088.0,0.0,0.0
11:13:23,740373.0,0.0,0.0
11:13:23,741501.0,0.0,0.0
11:13:23,742401.0,0.0,0.0
11:13:23,739825.0,0.0,0.0
11:13:23,743118.0,0.0,0.0
11:13:23,740370.0,0.0,0.0
11:13:23,741517.0,0.0,0.0
11:13:23,742388.0,0.0,0.0
11:13:23,739827.0,0.0,0.0
11:13:23,743095.0,0.0,0.0
11:13:23,740348.0,0.0,0.0
11:13:23,741516.0,0.0,0.0
11:13:23,742329.0,0.0,0.0
11:13:23,739803.0,0.0,0.0
11:13:23,743066.0,0.0,0.0
11:13:23,740286.0,0.0,0.0
11:13:23,741499.0,0.0,0.0
11:13:23,742271.0,0.0,0.0
11:13:23,739810.0,0.0,0.0
11:13:23,743088.0,0.0,0.0
11:13:23,740291.0,0.0,0.0
11:13:23,741518.0,0.0,0.0
11:13:23,742234.0,0.0,0.0
11:13:23,739777.0,0.0,0.0
11:13:23,743058.0,0.0,0.0
11:13:23,740225.0,0.0,0.0
11:13:23,741514.0,0.0,0.0
11:13:23,742230.0,0.0,0.0
11:13:23,739781.0,0.0,0.0
11:13:23,743066.0,0.0,0.0
11:13:23,740193.0,0.0,0.0
11:13:23,741528.0,0.0,0.0
11:13:23,742198.0,0.0,0.0
11:13:23,739764.0,0.0,0.0
11:13:23,743029.0,0.0,0.0
11:13:23,740163.0,0.0,0.0
11:13:23,741524.0,0.0,0.0
11:13:23,742172.0,0.0,0.0
11:13:23,739779.0,0.0,0.0
11:13:23,743042.0,0.0,0.0
11:13:23,740131.0,0.0,0.0
11:13:23,741543.0,0.0,0.0
11:13:23,742159.0,0.0,0.0
11:13:23,739778.0,0.0,0.0
11:13:23,743034.0,0.0,0.0
11:13:23,740138.0,0.0,0.0
11:13:23,741548.0,0.0,0.0
11:13:23,742109.0,0.0,0.0
11:13:23,739780.0,0.0,0.0
11:13:23,743012.0,0.0,0.0
11:13:23,740103.0,0.0,0.0
11:13:23,741562.0,0.0,0.0
11:13:23,742090.0,0.0,0.0
11:13:23,739786.0,0.0,0.0
11:13:23,742976.0,0.0,0.0
11:13:23,740053.0,0.0,0.0
11:13:23,741537.0,0.0,0.0
11:13:23,742006.0,0.0,0.0
11:13:23,739743.0,0.0,0.0
11:13:23,742947.0,0.0,0.0
11:13:23,739974.0,0.0,0.0
11:13:23,741544.0,0.0,0.0
11:13:23,741998.0,0.0,0.0
11:13:23,739745.0,0.0,0.0
11:13:23,742948.0,0.0,0.0
11:13:23,739991.0,0.0,0.0
11:13:23,741559.0,0.0,0.0
11:13:23,741940.0,0.0,0.0
11:13:23,739710.0,0.0,0.0
11:13:23,742906.0,0.0,0.0
11:13:23,739926.0,0.0,0.0
11:13:23,741516.0,0.0,0.0
11:13:23,741826.0,0.0,0.0
11:13:23,739688.0,0.0,0.0
11:13:23,742968.0,0.0,0.0
11:13:23,739944.0,0.0,0.0
11:13:23,741552.0,0.0,0.0
11:13:23,741830.0,0.0,0.0
11:13:23,739687.0,0.0,0.0
11:13:23,742866.0,0.0,0.0
11:13:23,739878.0,0.0,0.0
11:13:23,741527.0,0.0,0.0
11:13:23,741814.0,0.0,0.0
11:13:23,739727.0,0.0,0.0
11:13:23,742885.0,0.0,0.0
11:13:23,739847.0,0.0,0.0
11:13:23,741556.0,0.0,0.0
11:13:23,741757.0,0.0,0.0
11:13:23,739662.0,0.0,0.0
11:13:23,742848.0,0.0,0.0
11:13:23,739798.0,0.0,0.0
11:13:24,741556.0,0.0,0.0
11:13:24,741723.0,0.0,0.0
11:13:24,739631.0,0.0,0.0
11:13:24,742749.0,0.0,0.0
11:13:24,739696.0,0.0,0.0
11:13:24,741488.0,0.0,0.0
11:13:24,741646.0,0.0,0.0
11:13:24,739602.0,0.0,0.0
11:13:24,742734.0,0.0,0.0
11:13:24,739646.0,0.0,0.0
11:13:24,741398.0,0.0,0.0
11:13:24,741508.0,0.0,0.0
11:13:24,739506.0,0.0,0.0
11:13:24,742640.0,0.0,0.0
11:13:24,739554.0,0.0,0.0
11:13:24,741405.0,0.0,0.0
11:13:24,741491.0,0.0,0.0
11:13:24,739508.0,0.0,0.0
11:13:24,742651.0,0.0,0.0
11:13:24,739528.0,0.0,0.0
11:13:24,741398.0,0.0,0.0
11:13:24,741436.0,0.0,0.0
11:13:24,739503.0,0.0,0.0
11:13:24,742633.0,0.0,0.0
11:13:24,739509.0,0.0,0.0
11:13:24,741410.0,0.0,0.0
11:13:24,741398.0,0.0,0.0
11:13:24,739456.0,0.0,0.0
11:13:24,742579.0,0.0,0.0
11:13:24,739479.0,0.0,0.0
11:13:24,741404.0,0.0,0.0
11:13:24,741372.0,0.0,0.0
11:13:24,739491.0,0.0,0.0
11:13:24,742581.0,0.0,0.0
11:13:24,739441.0,0.0,0.0
11:13:24,741392.0,0.0,0.0
11:13:24,741325.0,0.0,0.0
11:13:24,739461.0,0.0,0.0
11:13:24,742550.0,0.0,0.0
11:13:24,739383.0,0.0,0.0
11:13:24,741384.0,0.0,0.0
11:13:24,741250.0,0.0,0.0
11:13:24,739399.0,0.0,0.0
11:13:24,742468.0,0.0,0.0
11:13:24,739288.0,0.0,0.0
11:13:24,741353.0,0.0,0.0
11:13:24,741156.0,0.0,0.0
11:13:24,739344.0,0.0,0.0
11:13:24,742403.0,0.0,0.0
11:13:24,739211.0,0.0,0.0
11:13:24,741299.0,0.0,0.0
11:13:24,741038.0,0.0,0.0
11:13:24,739259.0,0.0,0.0
11:13:24,742286.0,0.0,0.0
11:13:24,739080.0,0.0,0.0
11:13:24,741165.0,0.0,0.0
11:13:24,740916.0,0.0,0.0
11:13:24,739211.0,0.0,0.0
11:13:24,742225.0,0.0,0.0
11:13:24,739029.0,0.0,0.0
11:13:24,741137.0,0.0,0.0
11:13:24,740860.0,0.0,0.0
11:13:24,739179.0,0.0,0.0
11:13:24,742154.0,0.0,0.0
11:13:24,738961.0,0.0,0.0
11:13:24,741125.0,0.0,0.0
11:13:24,740788.0,0.0,0.0
11:13:24,739128.0,0.0,0.0
11:13:24,742101.0,0.0,0.0
11:13:24,738913.0,0.0,0.0
11:13:24,741069.0,0.0,0.0
11:13:24,740690.0,0.0,0.0
11:13:24,739107.0,0.0,0.0
11:13:24,742078.0,0.0,0.0
11:13:24,738861.0,0.0,0.0
11:13:24,741079.0,0.0,0.0
11:13:24,740659.0,0.0,0.0
11:13:24,739098.0,0.0,0.0
11:13:24,742073.0,0.0,0.0
11:13:24,738834.0,0.0,0.0
11:13:24,741023.0,0.0,0.0
11:13:24,740596.0,0.0,0.0
11:13:24,739089.0,0.0,0.0
11:13:24,741994.0,0.0,0.0
11:13:24,738781.0,0.0,0.0
11:13:24,741066.0,0.0,0.0
11:13:24,740563.0,0.0,0.0
11:13:24,739068.0,0.0,0.0
11:13:24,742029.0,0.0,0.0
11:13:24,738756.0,0.0,0.0
11:13:24,741014.0,0.0,0.0
11:13:24,740514.0,0.0,0.0
11:13:24,739066.0,0.0,0.0
11:13:24,741959.0,0.0,0.0
11:13:24,738724.0,0.0,0.0
11:13:24,741053.0,0.0,0.0
11:13:24,740514.0,0.0,0.0
11:13:24,739049.0,0.0,0.0
11:13:24,741917.0,0.0,0.0
11:13:24,738678.0,0.0,0.0
11:13:24,741029.0,0.0,0.0
11:13:24,740439.0,0.0,0.0
11:13:24,739032.0,0.0,0.0
11:13:24,741920.0,0.0,0.0
11:13:24,738686.0,0.0,0.0
11:13:24,741046.0,0.0,0.0
11:13:24,740408.0,0.0,0.0
11:13:24,739019.0,0.0,0.0
11:13:24,741868.0,0.0,0.0
11:13:24,738599.0,0.0,0.0
11:13:24,741001.0,0.0,0.0
11:13:24,740311.0,0.0,0.0
11:13:24,738995.0,0.0,0.0
11:13:24,741844.0,0.0,0.0
11:13:24,738559.0,0.0,0.0
11:13:24,740984.0,0.0,0.0
11:13:24,740294.0,0.0,0.0
11:13:24,739023.0,0.0,0.0
11:13:24,741816.0,0.0,0.0
11:13:24,738552.0,0.0,0.0
11:13:24,741033.0,0.0,0.0
11:13:24,740254.0,0.0,0.0
11:13:24,738965.0,0.0,0.0
11:13:24,741773.0,0.0,0.0
11:13:24,738531.0,0.0,0.0
11:13:25,740989.0,0.0,0.0
11:13:25,740196.0,0.0,0.0
11:13:25,738965.0,0.0,0.0
11:13:25,741739.0,0.0,0.0
11:13:25,738503.0,0.0,0.0
11:13:25,740996.0,0.0,0.0
11:13:25,740176.0,0.0,0.0
11:13:25,739003.0,0.0,0.0
11:13:25,741768.0,0.0,0.0
11:13:25,738493.0,0.0,0.0
11:13:25,741026.0,0.0,0.0
11:13:25,740163.0,0.0,0.0
11:13:25,738981.0,0.0,0.0
11:13:25,741696.0,0.0,0.0
11:13:25,738465.0,0.0,0.0
11:13:25,741088.0,0.0,0.0
11:13:25,740223.0,0.0,0.0
11:13:25,739084.0,0.0,0.0
11:13:25,741775.0,0.0,0.0
11:13:25,738479.0,0.0,0.0
11:13:25,741051.0,0.0,0.0
11:13:25,740089.0,0.0,0.0
11:13:25,739034.0,0.0,0.0
11:13:25,741703.0,0.0,0.0
11:13:25,738417.0,0.0,0.0
11:13:25,741019.0,0.0,0.0
11:13:25,740015.0,0.0,0.0
11:13:25,739011.0,0.0,0.0
11:13:25,741650.0,0.0,0.0
11:13:25,738381.0,0.0,0.0
11:13:25,741040.0,0.0,0.0
11:13:25,740018.0,0.0,0.0
11:13:25,738949.0,0.0,0.0
11:13:25,741593.0,0.0,0.0
11:13:25,738305.0,0.0,0.0
11:13:25,740973.0,0.0,0.0
11:13:25,739903.0,0.0,0.0
11:13:25,738919.0,0.0,0.0
11:13:25,741498.0,0.0,0.0
11:13:25,738235.0,0.0,0.0
11:13:25,740888.0,0.0,0.0
11:13:25,739795.0,0.0,0.0
11:13:25,738875.0,0.0,0.0
11:13:25,741458.0,0.0,0.0
11:13:25,738193.0,0.0,0.0
11:13:25,740888.0,0.0,0.0
11:13:25,739728.0,0.0,0.0
11:13:25,738863.0,0.0,0.0
11:13:25,741383.0,0.0,0.0
11:13:25,738126.0,0.0,0.0
11:13:25,740846.0,0.0,0.0
11:13:25,739686.0,0.0,0.0
11:13:25,738870.0,0.0,0.0
11:13:25,741399.0,0.0,0.0
11:13:25,738124.0,0.0,0.0
11:13:25,740853.0,0.0,0.0
11:13:25,739598.0,0.0,0.0
11:13:25,738848.0,0.0,0.0
11:13:25,741368.0,0.0,0.0
11:13:25,738101.0,0.0,0.0
11:13:25,740879.0,0.0,0.0
11:13:25,739580.0,0.0,0.0
11:13:25,738822.0,0.0,0.0
11:13:25,741309.0,0.0,0.0
11:13:25,738069.0,0.0,0.0
11:13:25,740836.0,0.0,0.0
11:13:25,739547.0,0.0,0.0
11:13:25,738821.0,0.0,0.0
11:13:25,741278.0,0.0,0.0
11:13:25,738039.0,0.0,0.0
11:13:25,740860.0,0.0,0.0
11:13:25,739513.0,0.0,0.0
11:13:25,738836.0,0.0,0.0
11:13:25,741260.0,0.0,0.0
11:13:25,738019.0,0.0,0.0
11:13:25,740836.0,0.0,0.0
11:13:25,739479.0,0.0,0.0
11:13:25,738857.0,0.0,0.0
11:13:25,741204.0,0.0,0.0
11:13:25,737996.0,0.0,0.0
11:13:25,740853.0,0.0,0.0
11:13:25,739444.0,0.0,0.0
11:13:25,738861.0,0.0,0.0
11:13:25,741191.0,0.0,0.0
11:13:25,737973.0,0.0,0.0
11:13:25,740843.0,0.0,0.0
11:13:25,739391.0,0.0,0.0
11:13:25,738813.0,0.0,0.0
11:13:25,741129.0,0.0,0.0
11:13:25,737971.0,0.0,0.0
11:13:25,740855.0,0.0,0.0
11:13:25,739360.0,0.0,0.0
11:13:25,738831.0,0.0,0.0
11:13:25,741128.0,0.0,0.0
11:13:25,737948.0,0.0,0.0
11:13:25,740863.0,0.0,0.0
11:13:25,739318.0,0.0,0.0
11:13:25,738833.0,0.0,0.0
11:13:25,741122.0,0.0,0.0
11:13:25,737928.0,0.0,0.0
11:13:25,740822.0,0.0,0.0
11:13:25,739286.0,0.0,0.0
11:13:25,738876.0,0.0,0.0
11:13:25,741094.0,0.0,0.0
11:13:25,737914.0,0.0,0.0
11:13:25,740864.0,0.0,0.0
11:13:25,739263.0,0.0,0.0
11:13:25,738888.0,0.0,0.0
11:13:25,741081.0,0.0,0.0
11:13:25,737916.0,0.0,0.0
11:13:25,740854.0,0.0,0.0
11:13:25,739250.0,0.0,0.0
11:13:25,738899.0,0.0,0.0
11:13:25,741081.0,0.0,0.0
11:13:25,737895.0,0.0,0.0
11:13:25,740891.0,0.0,0.0
11:13:25,739240.0,0.0,0.0
11:13:25,738913.0,0.0,0.0
11:13:25,741058.0,0.0,0.0
11:13:25,737882.0,0.0,0.0
11:13:25,740870.0,0.0,0.0
11:13:25,739176.0,0.0,0.0
11:13:25,738919.0,0.0,0.0
11:13:25,741021.0,0.0,0.0
11:13:25,737853.0,0.0,0.0
11:13:26,740835.0,0.0,0.0
11:13:26,739144.0,0.0,0.0
11:13:26,738932.0,0.0,0.0
11:13:26,740986.0,0.0,0.0
11:13:26,737871.0,0.0,0.0
11:13:26,740884.0,0.0,0.0
11:13:26,739114.0,0.0,0.0
11:13:26,738948.0,0.0,0.0
11:13:26,740983.0,0.0,0.0
11:13:26,737838.0,0.0,0.0
11:13:26,740879.0,0.0,0.0
11:13:26,739112.0,0.0,0.0
11:13:26,738935.0,0.0,0.0
11:13:26,740965.0,0.0,0.0
11:13:26,737851.0,0.0,0.0
11:13:26,740884.0,0.0,0.0
11:13:26,739051.0,0.0,0.0
11:13:26,738938.0,0.0,0.0
11:13:26,740901.0,0.0,0.0
11:13:26,737814.0,0.0,0.0
11:13:26,740868.0,0.0,0.0
11:13:26,738974.0,0.0,0.0
11:13:26,738931.0,0.0,0.0
11:13:26,740917.0,0.0,0.0
11:13:26,737821.0,0.0,0.0
11:13:26,740911.0,0.0,0.0
11:13:26,739037.0,0.0,0.0
11:13:26,738999.0,0.0,0.0
11:13:26,740901.0,0.0,0.0
11:13:26,737820.0,0.0,0.0
11:13:26,740895.0,0.0,0.0
11:13:26,738976.0,0.0,0.0
11:13:26,739016.0,0.0,0.0
11:13:26,740904.0,0.0,0.0
11:13:26,737813.0,0.0,0.0
11:13:26,740926.0,0.0,0.0
11:13:26,738961.0,0.0,0.0
11:13:26,738996.0,0.0,0.0
11:13:26,740833.0,0.0,0.0
11:13:26,737792.0,0.0,0.0
11:13:26,740908.0,0.0,0.0
11:13:26,738897.0,0.0,0.0
11:13:26,739051.0,0.0,0.0
11:13:26,740833.0,0.0,0.0
11:13:26,737828.0,0.0,0.0
11:13:26,740933.0,0.0,0.0
11:13:26,738896.0,0.0,0.0
11:13:26,739019.0,0.0,0.0
11:13:26,740749.0,0.0,0.0
11:13:26,737816.0,0.0,0.0
11:13:26,741044.0,0.0,0.0
11:13:26,738939.0,0.0,0.0
11:13:26,739104.0,0.0,0.0
11:13:26,740820.0,0.0,0.0
11:13:26,737782.0,0.0,0.0
11:13:26,740911.0,0.0,0.0
11:13:26,738830.0,0.0,0.0
11:13:26,739061.0,0.0,0.0
11:13:26,740795.0,0.0,0.0
11:13:26,737823.0,0.0,0.0
11:13:26,740968.0,0.0,0.0
11:13:26,738837.0,0.0,0.0
11:13:26,739110.0,0.0,0.0
11:13:26,740780.0,0.0,0.0
11:13:26,737818.0,0.0,0.0
11:13:26,740960.0,0.0,0.0
11:13:26,738781.0,0.0,0.0
11:13:26,739081.0,0.0,0.0
11:13:26,740703.0,0.0,0.0
11:13:26,737764.0,0.0,0.0
11:13:26,740928.0,0.0,0.0
11:13:26,738728.0,0.0,0.0
11:13:26,739070.0,0.0,0.0
11:13:26,740682.0,0.0,0.0
11:13:26,737728.0,0.0,0.0
11:13:26,740886.0,0.0,0.0
11:13:26,738668.0,0.0,0.0
11:13:26,739077.0,0.0,0.0
11:13:26,740651.0,0.0,0.0
11:13:26,737695.0,0.0,0.0
11:13:26,740867.0,0.0,0.0
11:13:26,738621.0,0.0,0.0
11:13:26,739087.0,0.0,0.0
11:13:26,740613.0,0.0,0.0
11:13:26,737707.0,0.0,0.0
11:13:26,740900.0,0.0,0.0
11:13:26,738618.0,0.0,0.0
11:13:26,739127.0,0.0,0.0
11:13:26,740602.0,0.0,0.0
11:13:26,737706.0,0.0,0.0
11:13:26,740939.0,0.0,0.0
11:13:26,738629.0,0.0,0.0
11:13:26,739186.0,0.0,0.0
11:13:26,740626.0,0.0,0.0
11:13:26,737746.0,0.0,0.0
11:13:26,740961.0,0.0,0.0
11:13:26,738615.0,0.0,0.0
11:13:26,739189.0,0.0,0.0
11:13:26,740609.0,0.0,0.0
11:13:26,737769.0,0.0,0.0
11:13:26,740999.0,0.0,0.0
11:13:26,738612.0,0.0,0.0
11:13:26,739216.0,0.0,0.0
11:13:26,740566.0,0.0,0.0
11:13:26,737757.0,0.0,0.0
11:13:26,740961.0,0.0,0.0
11:13:26,738529.0,0.0,0.0
11:13:26,739209.0,0.0,0.0
11:13:26,740562.0,0.0,0.0
11:13:26,737769.0,0.0,0.0
11:13:26,741010.0,0.0,0.0
11:13:26,738558.0,0.0,0.0
11:13:26,739258.0,0.0,0.0
11:13:26,740532.0,0.0,0.0
11:13:26,737792.0,0.0,0.0
11:13:26,741011.0,0.0,0.0
11:13:26,738528.0,0.0,0.0
11:13:26,739265.0,0.0,0.0
11:13:26,740523.0,0.0,0.0
11:13:26,737777.0,0.0,0.0
11:13:26,741006.0,0.0,0.0
11:13:26,738507.0,0.0,0.0
11:13:26,739289.0,0.0,0.0
11:13:26,740498.0,0.0,0.0
11:13:27,737765.0,0.0,0.0
11:13:27,741006.0,0.0,0.0
11:13:27,738488.0,0.0,0.0
11:13:27,739351.0,0.0,0.0
11:13:27,740507.0,0.0,0.0
11:13:27,737821.0,0.0,0.0
11:13:27,741003.0,0.0,0.0
11:13:27,738436.0,0.0,0.0
11:13:27,739341.0,0.0,0.0
11:13:27,740475.0,0.0,0.0
11:13:27,737808.0,0.0,0.0
11:13:27,741043.0,0.0,0.0
11:13:27,738474.0,0.0,0.0
11:13:27,739414.0,0.0,0.0
11:13:27,740489.0,0.0,0.0
11:13:27,737804.0,0.0,0.0
11:13:27,741056.0,0.0,0.0
11:13:27,738449.0,0.0,0.0
11:13:27,739409.0,0.0,0.0
11:13:27,740429.0,0.0,0.0
11:13:27,737806.0,0.0,0.0
11:13:27,741031.0,0.0,0.0
11:13:27,738429.0,0.0,0.0
11:13:27,739428.0,0.0,0.0
11:13:27,740405.0,0.0,0.0
11:13:27,737839.0,0.0,0.0
11:13:27,741110.0,0.0,0.0
11:13:27,738414.0,0.0,0.0
11:13:27,739444.0,0.0,0.0
11:13:27,740380.0,0.0,0.0
11:13:27,737844.0,0.0,0.0
11:13:27,741108.0,0.0,0.0
11:13:27,738418.0,0.0,0.0
11:13:27,739494.0,0.0,0.0
11:13:27,740376.0,0.0,0.0
11:13:27,737834.0,0.0,0.0
11:13:27,741047.0,0.0,0.0
11:13:27,738351.0,0.0,0.0
11:13:27,739504.0,0.0,0.0
11:13:27,740348.0,0.0,0.0
11:13:27,737838.0,0.0,0.0
11:13:27,741087.0,0.0,0.0
11:13:27,738366.0,0.0,0.0
11:13:27,739526.0,0.0,0.0
11:13:27,740372.0,0.0,0.0
11:13:27,737886.0,0.0,0.0
11:13:27,741102.0,0.0,0.0
11:13:27,738357.0,0.0,0.0
11:13:27,739568.0,0.0,0.0
11:13:27,740347.0,0.0,0.0
11:13:27,737882.0,0.0,0.0
11:13:27,741088.0,0.0,0.0
11:13:27,738329.0,0.0,0.0
11:13:27,739567.0,0.0,0.0
11:13:27,740314.0,0.0,0.0
11:13:27,737908.0,0.0,0.0
11:13:27,741116.0,0.0,0.0
11:13:27,738318.0,0.0,0.0
11:13:27,739606.0,0.0,0.0
11:13:27,740299.0,0.0,0.0
11:13:27,737884.0,0.0,0.0
11:13:27,741106.0,0.0,0.0
11:13:27,738306.0,0.0,0.0
11:13:27,739631.0,0.0,0.0
11:13:27,740249.0,0.0,0.0
11:13:27,737872.0,0.0,0.0
11:13:27,741111.0,0.0,0.0
11:13:27,738300.0,0.0,0.0
11:13:27,739629.0,0.0,0.0
11:13:27,740248.0,0.0,0.0
11:13:27,737898.0,0.0,0.0
11:13:27,741079.0,0.0,0.0
11:13:27,738249.0,0.0,0.0
11:13:27,739655.0,0.0,0.0
11:13:27,740213.0,0.0,0.0
11:13:27,737919.0,0.0,0.0
11:13:27,741126.0,0.0,0.0
11:13:27,738276.0,0.0,0.0
11:13:27,739649.0,0.0,0.0
11:13:27,740124.0,0.0,0.0
11:13:27,737904.0,0.0,0.0
11:13:27,741214.0,0.0,0.0
11:13:27,738312.0,0.0,0.0
11:13:27,739773.0,0.0,0.0
11:13:27,740231.0,0.0,0.0
11:13:27,737939.0,0.0,0.0
11:13:27,741112.0,0.0,0.0
11:13:27,738220.0,0.0,0.0
11:13:27,739736.0,0.0,0.0
11:13:27,740168.0,0.0,0.0
11:13:27,737929.0,0.0,0.0
11:13:27,741146.0,0.0,0.0
11:13:27,738202.0,0.0,0.0
11:13:27,739767.0,0.0,0.0
11:13:27,740126.0,0.0,0.0
11:13:27,737923.0,0.0,0.0
11:13:27,741118.0,0.0,0.0
11:13:27,738136.0,0.0,0.0
11:13:27,739716.0,0.0,0.0
11:13:27,740077.0,0.0,0.0
11:13:27,737907.0,0.0,0.0
11:13:27,741049.0,0.0,0.0
11:13:27,738091.0,0.0,0.0
11:13:27,739671.0,0.0,0.0
11:13:27,739976.0,0.0,0.0
11:13:27,737866.0,0.0,0.0
11:13:27,741014.0,0.0,0.0
11:13:27,738047.0,0.0,0.0
11:13:27,739648.0,0.0,0.0
11:13:27,739937.0,0.0,0.0
11:13:27,737821.0,0.0,0.0
11:13:27,740939.0,0.0,0.0
11:13:27,737960.0,0.0,0.0
11:13:27,739669.0,0.0,0.0
11:13:27,739889.0,0.0,0.0
11:13:27,737806.0,0.0,0.0
11:13:27,740945.0,0.0,0.0
11:13:27,737927.0,0.0,0.0
11:13:27,739657.0,0.0,0.0
11:13:27,739854.0,0.0,0.0
11:13:27,737815.0,0.0,0.0
11:13:27,740964.0,0.0,0.0
11:13:27,737911.0,0.0,0.0
11:13:27,739671.0,0.0,0.0
11:13:27,739835.0,0.0,0.0
11:13:28,737834.0,0.0,0.0
11:13:28,740966.0,0.0,0.0
11:13:28,737923.0,0.0,0.0
11:13:28,739698.0,0.0,0.0
11:13:28,739796.0,0.0,0.0
11:13:28,737810.0,0.0,0.0
11:13:28,740934.0,0.0,0.0
11:13:28,737881.0,0.0,0.0
11:13:28,739687.0,0.0,0.0
11:13:28,739763.0,0.0,0.0
11:13:28,737834.0,0.0,0.0
11:13:28,740934.0,0.0,0.0
11:13:28,737854.0,0.0,0.0
11:13:28,739711.0,0.0,0.0
11:13:28,739754.0,0.0,0.0
11:13:28,737843.0,0.0,0.0
11:13:28,740956.0,0.0,0.0
11:13:28,737866.0,0.0,0.0
11:13:28,739726.0,0.0,0.0
11:13:28,739733.0,0.0,0.0
11:13:28,737885.0,0.0,0.0
11:13:28,740958.0,0.0,0.0
11:13:28,737848.0,0.0,0.0
11:13:28,739765.0,0.0,0.0
11:13:28,739721.0,0.0,0.0
11:13:28,737896.0,0.0,0.0
11:13:28,740935.0,0.0,0.0
11:13:28,737823.0,0.0,0.0
11:13:28,739805.0,0.0,0.0
11:13:28,739724.0,0.0,0.0
11:13:28,737903.0,0.0,0.0
11:13:28,740937.0,0.0,0.0
11:13:28,737846.0,0.0,0.0
11:13:28,739832.0,0.0,0.0
11:13:28,739704.0,0.0,0.0
11:13:28,737931.0,0.0,0.0
11:13:28,740934.0,0.0,0.0
11:13:28,737816.0,0.0,0.0
11:13:28,739867.0,0.0,0.0
11:13:28,739679.0,0.0,0.0
11:13:28,737964.0,0.0,0.0
11:13:28,740981.0,0.0,0.0
11:13:28,737824.0,0.0,0.0
11:13:28,739869.0,0.0,0.0
11:13:28,739656.0,0.0,0.0
11:13:28,737948.0,0.0,0.0
11:13:28,740949.0,0.0,0.0
11:13:28,737829.0,0.0,0.0
11:13:28,739916.0,0.0,0.0
11:13:28,739648.0,0.0,0.0
11:13:28,737986.0,0.0,0.0
11:13:28,740955.0,0.0,0.0
11:13:28,737829.0,0.0,0.0
11:13:28,739944.0,0.0,0.0
11:13:28,739625.0,0.0,0.0
11:13:28,737969.0,0.0,0.0
11:13:28,740931.0,0.0,0.0
11:13:28,737790.0,0.0,0.0
11:13:28,739935.0,0.0,0.0
11:13:28,739625.0,0.0,0.0
11:13:28,738024.0,0.0,0.0
11:13:28,740973.0,0.0,0.0
11:13:28,737798.0,0.0,0.0
11:13:28,739969.0,0.0,0.0
11:13:28,739601.0,0.0,0.0
11:13:28,738034.0,0.0,0.0
11:13:28,740964.0,0.0,0.0
11:13:28,737813.0,0.0,0.0
11:13:28,740001.0,0.0,0.0
11:13:28,739572.0,0.0,0.0
11:13:28,738055.0,0.0,0.0
11:13:28,740952.0,0.0,0.0
11:13:28,737776.0,0.0,0.0
11:13:28,740020.0,0.0,0.0
11:13:28,739551.0,0.0,0.0
11:13:28,738067.0,0.0,0.0
11:13:28,740961.0,0.0,0.0
11:13:28,737761.0,0.0,0.0
11:13:28,740026.0,0.0,0.0
11:13:28,739537.0,0.0,0.0
11:13:28,738098.0,0.0,0.0
11:13:28,740987.0,0.0,0.0
11:13:28,737806.0,0.0,0.0
11:13:28,740093.0,0.0,0.0
11:13:28,739534.0,0.0,0.0
11:13:28,738101.0,0.0,0.0
11:13:28,740988.0,0.0,0.0
11:13:28,737775.0,0.0,0.0
11:13:28,740099.0,0.0,0.0
11:13:28,739499.0,0.0,0.0
11:13:28,738128.0,0.0,0.0
11:13:28,740978.0,0.0,0.0
11:13:28,737775.0,0.0,0.0
11:13:28,740102.0,0.0,0.0
11:13:28,739493.0,0.0,0.0
11:13:28,738164.0,0.0,0.0
11:13:28,740992.0,0.0,0.0
11:13:28,737788.0,0.0,0.0
11:13:28,740146.0,0.0,0.0
11:13:28,739483.0,0.0,0.0
11:13:28,738171.0,0.0,0.0
11:13:28,740979.0,0.0,0.0
11:13:28,737779.0,0.0,0.0
11:13:28,740134.0,0.0,0.0
11:13:28,739423.0,0.0,0.0
11:13:28,738176.0,0.0,0.0
11:13:28,740975.0,0.0,0.0
11:13:28,737799.0,0.0,0.0
11:13:28,740279.0,0.0,0.0
11:13:28,739488.0,0.0,0.0
11:13:28,738199.0,0.0,0.0
11:13:28,740961.0,0.0,0.0
11:13:28,737754.0,0.0,0.0
11:13:28,740213.0,0.0,0.0
11:13:28,739408.0,0.0,0.0
11:13:28,738246.0,0.0,0.0
11:13:28,741016.0,0.0,0.0
11:13:28,737745.0,0.0,0.0
11:13:28,740236.0,0.0,0.0
11:13:28,739436.0,0.0,0.0
11:13:28,738254.0,0.0,0.0
11:13:28,740923.0,0.0,0.0
11:13:28,737725.0,0.0,0.0
11:13:28,740231.0,0.0,0.0
11:13:28,739334.0,0.0,0.0
11:13:29,738212.0,0.0,0.0
11:13:29,740845.0,0.0,0.0
11:13:29,737630.0,0.0,0.0
11:13:29,740188.0,0.0,0.0
11:13:29,739267.0,0.0,0.0
11:13:29,738173.0,0.0,0.0
11:13:29,740798.0,0.0,0.0
11:13:29,737563.0,0.0,0.0
11:13:29,740135.0,0.0,0.0
11:13:29,739166.0,0.0,0.0
11:13:29,738147.0,0.0,0.0
11:13:29,740758.0,0.0,0.0
11:13:29,737544.0,0.0,0.0
11:13:29,740120.0,0.0,0.0
11:13:29,739133.0,0.0,0.0
11:13:29,738148.0,0.0,0.0
11:13:29,740742.0,0.0,0.0
11:13:29,737525.0,0.0,0.0
11:13:29,740131.0,0.0,0.0
11:13:29,739144.0,0.0,0.0
11:13:29,738171.0,0.0,0.0
11:13:29,740713.0,0.0,0.0
11:13:29,737494.0,0.0,0.0
11:13:29,740134.0,0.0,0.0
11:13:29,739044.0,0.0,0.0
11:13:29,738136.0,0.0,0.0
11:13:29,740692.0,0.0,0.0
11:13:29,737459.0,0.0,0.0
11:13:29,740129.0,0.0,0.0
11:13:29,739040.0,0.0,0.0
11:13:29,738183.0,0.0,0.0
11:13:29,740676.0,0.0,0.0
11:13:29,737442.0,0.0,0.0
11:13:29,740180.0,0.0,0.0
11:13:29,739016.0,0.0,0.0
11:13:29,738188.0,0.0,0.0
11:13:29,740696.0,0.0,0.0
11:13:29,737494.0,0.0,0.0
11:13:29,740179.0,0.0,0.0
11:13:29,738958.0,0.0,0.0
11:13:29,738210.0,0.0,0.0
11:13:29,740704.0,0.0,0.0
11:13:29,737461.0,0.0,0.0
11:13:29,740190.0,0.0,0.0
11:13:29,738964.0,0.0,0.0
11:13:29,738215.0,0.0,0.0
11:13:29,740676.0,0.0,0.0
11:13:29,737469.0,0.0,0.0
11:13:29,740218.0,0.0,0.0
11:13:29,738946.0,0.0,0.0
11:13:29,738214.0,0.0,0.0
11:13:29,740630.0,0.0,0.0
11:13:29,737424.0,0.0,0.0
11:13:29,740193.0,0.0,0.0
11:13:29,738905.0,0.0,0.0
11:13:29,738249.0,0.0,0.0
11:13:29,740646.0,0.0,0.0
11:13:29,737464.0,0.0,0.0
11:13:29,740254.0,0.0,0.0
11:13:29,738902.0,0.0,0.0
11:13:29,738256.0,0.0,0.0
11:13:29,740629.0,0.0,0.0
11:13:29,737425.0,0.0,0.0
11:13:29,740236.0,0.0,0.0
11:13:29,738867.0,0.0,0.0
11:13:29,738304.0,0.0,0.0
11:13:29,740623.0,0.0,0.0
11:13:29,737437.0,0.0,0.0
11:13:29,740248.0,0.0,0.0
11:13:29,738812.0,0.0,0.0
11:13:29,738275.0,0.0,0.0
11:13:29,740601.0,0.0,0.0
11:13:29,737439.0,0.0,0.0
11:13:29,740298.0,0.0,0.0
11:13:29,738857.0,0.0,0.0
11:13:29,738329.0,0.0,0.0
11:13:29,740598.0,0.0,0.0
11:13:29,737443.0,0.0,0.0
11:13:29,740309.0,0.0,0.0
11:13:29,738858.0,0.0,0.0
11:13:29,738378.0,0.0,0.0
11:13:29,740615.0,0.0,0.0
11:13:29,737443.0,0.0,0.0
11:13:29,740333.0,0.0,0.0
11:13:29,738777.0,0.0,0.0
11:13:29,738374.0,0.0,0.0
11:13:29,740584.0,0.0,0.0
11:13:29,737433.0,0.0,0.0
11:13:29,740327.0,0.0,0.0
11:13:29,738763.0,0.0,0.0
11:13:29,738360.0,0.0,0.0
11:13:29,740563.0,0.0,0.0
11:13:29,737418.0,0.0,0.0
11:13:29,740339.0,0.0,0.0
11:13:29,738732.0,0.0,0.0
11:13:29,738408.0,0.0,0.0
11:13:29,740558.0,0.0,0.0
11:13:29,737408.0,0.0,0.0
11:13:29,740352.0,0.0,0.0
11:13:29,738741.0,0.0,0.0
11:13:29,738458.0,0.0,0.0
11:13:29,740595.0,0.0,0.0
11:13:29,737434.0,0.0,0.0
11:13:29,740381.0,0.0,0.0
11:13:29,738730.0,0.0,0.0
11:13:29,738466.0,0.0,0.0
11:13:29,740528.0,0.0,0.0
11:13:29,737439.0,0.0,0.0
11:13:29,740389.0,0.0,0.0
11:13:29,738651.0,0.0,0.0
11:13:29,738463.0,0.0,0.0
11:13:29,740521.0,0.0,0.0
11:13:29,737407.0,0.0,0.0
11:13:29,740359.0,0.0,0.0
11:13:29,738649.0,0.0,0.0
11:13:29,738466.0,0.0,0.0
11:13:29,740483.0,0.0,0.0
11:13:29,737407.0,0.0,0.0
11:13:29,740393.0,0.0,0.0
11:13:29,738631.0,0.0,0.0
11:13:29,738481.0,0.0,0.0
11:13:29,740471.0,0.0,0.0
11:13:29,737373.0,0.0,0.0
11:13:29,740386.0,0.0,0.0
11:13:29,738626.0,0.0,0.0
11:13:29,738511.0,0.0,0.0
11:13:30,740473.0,0.0,0.0
11:13:30,737394.0,0.0,0.0
11:13:30,740363.0,0.0,0.0
11:13:30,738483.0,0.0,0.0
11:13:30,738503.0,0.0,0.0
11:13:30,740483.0,0.0,0.0
11:13:30,737446.0,0.0,0.0
11:13:30,740459.0,0.0,0.0
11:13:30,738543.0,0.0,0.0
11:13:30,738521.0,0.0,0.0
11:13:30,740390.0,0.0,0.0
11:13:30,737373.0,0.0,0.0
11:13:30,740449.0,0.0,0.0
11:13:30,738506.0,0.0,0.0
11:13:30,738549.0,0.0,0.0
11:13:30,740388.0,0.0,0.0
11:13:30,737353.0,0.0,0.0
11:13:30,740426.0,0.0,0.0
11:13:30,738459.0,0.0,0.0
11:13:30,738541.0,0.0,0.0
11:13:30,740348.0,0.0,0.0
11:13:30,737322.0,0.0,0.0
11:13:30,740374.0,0.0,0.0
11:13:30,738369.0,0.0,0.0
11:13:30,738453.0,0.0,0.0
11:13:30,740218.0,0.0,0.0
11:13:30,737209.0,0.0,0.0
11:13:30,740272.0,0.0,0.0
11:13:30,738276.0,0.0,0.0
11:13:30,738459.0,0.0,0.0
11:13:30,740185.0,0.0,0.0
11:13:30,737182.0,0.0,0.0
11:13:30,740269.0,0.0,0.0
11:13:30,738213.0,0.0,0.0
11:13:30,738411.0,0.0,0.0
11:13:30,740095.0,0.0,0.0
11:13:30,737111.0,0.0,0.0
11:13:30,740228.0,0.0,0.0
11:13:30,738136.0,0.0,0.0
11:13:30,738370.0,0.0,0.0
11:13:30,740044.0,0.0,0.0
11:13:30,737090.0,0.0,0.0
11:13:30,740191.0,0.0,0.0
11:13:30,738102.0,0.0,0.0
11:13:30,738386.0,0.0,0.0
11:13:30,740053.0,0.0,0.0
11:13:30,737085.0,0.0,0.0
11:13:30,740204.0,0.0,0.0
11:13:30,738071.0,0.0,0.0
11:13:30,738356.0,0.0,0.0
11:13:30,739969.0,0.0,0.0
11:13:30,737069.0,0.0,0.0
11:13:30,740159.0,0.0,0.0
11:13:30,737993.0,0.0,0.0
11:13:30,738393.0,0.0,0.0
11:13:30,739927.0,0.0,0.0
11:13:30,737050.0,0.0,0.0
11:13:30,740178.0,0.0,0.0
11:13:30,737979.0,0.0,0.0
11:13:30,738407.0,0.0,0.0
11:13:30,739954.0,0.0,0.0
11:13:30,737054.0,0.0,0.0
11:13:30,740211.0,0.0,0.0
11:13:30,737956.0,0.0,0.0
11:13:30,738401.0,0.0,0.0
11:13:30,739905.0,0.0,0.0
11:13:30,737046.0,0.0,0.0
11:13:30,740204.0,0.0,0.0
11:13:30,737934.0,0.0,0.0
11:13:30,738418.0,0.0,0.0
11:13:30,739881.0,0.0,0.0
11:13:30,737048.0,0.0,0.0
11:13:30,740206.0,0.0,0.0
11:13:30,737888.0,0.0,0.0
11:13:30,738424.0,0.0,0.0
11:13:30,739833.0,0.0,0.0
11:13:30,737003.0,0.0,0.0
11:13:30,740161.0,0.0,0.0
11:13:30,737849.0,0.0,0.0
11:13:30,738423.0,0.0,0.0
11:13:30,739788.0,0.0,0.0
11:13:30,736986.0,0.0,0.0
11:13:30,740150.0,0.0,0.0
11:13:30,737791.0,0.0,0.0
11:13:30,738403.0,0.0,0.0
11:13:30,739749.0,0.0,0.0
11:13:30,736976.0,0.0,0.0
11:13:30,740135.0,0.0,0.0
11:13:30,737780.0,0.0,0.0
11:13:30,738476.0,0.0,0.0
11:13:30,739761.0,0.0,0.0
11:13:30,737014.0,0.0,0.0
11:13:30,740188.0,0.0,0.0
11:13:30,737761.0,0.0,0.0
11:13:30,738477.0,0.0,0.0
11:13:30,739739.0,0.0,0.0
11:13:30,736979.0,0.0,0.0
11:13:30,740187.0,0.0,0.0
11:13:30,737759.0,0.0,0.0
11:13:30,738482.0,0.0,0.0
11:13:30,739711.0,0.0,0.0
11:13:30,736990.0,0.0,0.0
11:13:30,740145.0,0.0,0.0
11:13:30,737696.0,0.0,0.0
11:13:30,738471.0,0.0,0.0
11:13:30,739660.0,0.0,0.0
11:13:30,736973.0,0.0,0.0
11:13:30,740158.0,0.0,0.0
11:13:30,737677.0,0.0,0.0
11:13:30,738504.0,0.0,0.0
11:13:30,739614.0,0.0,0.0
11:13:30,736929.0,0.0,0.0
11:13:30,740113.0,0.0,0.0
11:13:30,737625.0,0.0,0.0
11:13:30,738476.0,0.0,0.0
11:13:30,739576.0,0.0,0.0
11:13:30,736929.0,0.0,0.0
11:13:30,740128.0,0.0,0.0
11:13:30,737623.0,0.0,0.0
11:13:30,738493.0,0.0,0.0
11:13:30,739566.0,0.0,0.0
11:13:30,736933.0,0.0,0.0
11:13:30,740116.0,0.0,0.0
11:13:30,737541.0,0.0,0.0
11:13:31,738494.0,0.0,0.0
11:13:31,739509.0,0.0,0.0
11:13:31,736901.0,0.0,0.0
11:13:31,740113.0,0.0,0.0
11:13:31,737532.0,0.0,0.0
11:13:31,738491.0,0.0,0.0
11:13:31,739468.0,0.0,0.0
11:13:31,736901.0,0.0,0.0
11:13:31,740096.0,0.0,0.0
11:13:31,737448.0,0.0,0.0
11:13:31,738524.0,0.0,0.0
11:13:31,739460.0,0.0,0.0
11:13:31,736893.0,0.0,0.0
11:13:31,740118.0,0.0,0.0
11:13:31,737463.0,0.0,0.0
11:13:31,738489.0,0.0,0.0
11:13:31,739391.0,0.0,0.0
11:13:31,736898.0,0.0,0.0
11:13:31,740078.0,0.0,0.0
11:13:31,737418.0,0.0,0.0
11:13:31,738524.0,0.0,0.0
11:13:31,739356.0,0.0,0.0
11:13:31,736878.0,0.0,0.0
11:13:31,740081.0,0.0,0.0
11:13:31,737417.0,0.0,0.0
11:13:31,738543.0,0.0,0.0
11:13:31,739363.0,0.0,0.0
11:13:31,736880.0,0.0,0.0
11:13:31,740048.0,0.0,0.0
11:13:31,737333.0,0.0,0.0
11:13:31,738455.0,0.0,0.0
11:13:31,739264.0,0.0,0.0
11:13:31,736921.0,0.0,0.0
11:13:31,740141.0,0.0,0.0
11:13:31,737351.0,0.0,0.0
11:13:31,738534.0,0.0,0.0
11:13:31,739228.0,0.0,0.0
11:13:31,736853.0,0.0,0.0
11:13:31,740026.0,0.0,0.0
11:13:31,737259.0,0.0,0.0
11:13:31,738503.0,0.0,0.0
11:13:31,739210.0,0.0,0.0
11:13:31,736869.0,0.0,0.0
11:13:31,740014.0,0.0,0.0
11:13:31,737248.0,0.0,0.0
11:13:31,738552.0,0.0,0.0
11:13:31,739190.0,0.0,0.0
11:13:31,736807.0,0.0,0.0
11:13:31,739945.0,0.0,0.0
11:13:31,737180.0,0.0,0.0
11:13:31,738490.0,0.0,0.0
11:13:31,739068.0,0.0,0.0
11:13:31,736741.0,0.0,0.0
11:13:31,739887.0,0.0,0.0
11:13:31,737077.0,0.0,0.0
11:13:31,738443.0,0.0,0.0
11:13:31,738982.0,0.0,0.0
11:13:31,736685.0,0.0,0.0
11:13:31,739805.0,0.0,0.0
11:13:31,736976.0,0.0,0.0
11:13:31,738343.0,0.0,0.0
11:13:31,738873.0,0.0,0.0
11:13:31,736655.0,0.0,0.0
11:13:31,739770.0,0.0,0.0
11:13:31,736948.0,0.0,0.0
11:13:31,738382.0,0.0,0.0
11:13:31,738813.0,0.0,0.0
11:13:31,736600.0,0.0,0.0
11:13:31,739711.0,0.0,0.0
11:13:31,736868.0,0.0,0.0
11:13:31,738335.0,0.0,0.0
11:13:31,738746.0,0.0,0.0
11:13:31,736541.0,0.0,0.0
11:13:31,739689.0,0.0,0.0
11:13:31,736829.0,0.0,0.0
11:13:31,738348.0,0.0,0.0
11:13:31,738704.0,0.0,0.0
11:13:31,736552.0,0.0,0.0
11:13:31,739698.0,0.0,0.0
11:13:31,736766.0,0.0,0.0
11:13:31,738317.0,0.0,0.0
11:13:31,738697.0,0.0,0.0
11:13:31,736573.0,0.0,0.0
11:13:31,739671.0,0.0,0.0
11:13:31,736754.0,0.0,0.0
11:13:31,738339.0,0.0,0.0
11:13:31,738659.0,0.0,0.0
11:13:31,736569.0,0.0,0.0
11:13:31,739664.0,0.0,0.0
11:13:31,736722.0,0.0,0.0
11:13:31,738362.0,0.0,0.0
11:13:31,738626.0,0.0,0.0
11:13:31,736590.0,0.0,0.0
11:13:31,739684.0,0.0,0.0
11:13:31,736711.0,0.0,0.0
11:13:31,738363.0,0.0,0.0
11:13:31,738574.0,0.0,0.0
11:13:31,736528.0,0.0,0.0
11:13:31,739596.0,0.0,0.0
11:13:31,736654.0,0.0,0.0
11:13:31,738345.0,0.0,0.0
11:13:31,738508.0,0.0,0.0
11:13:31,736473.0,0.0,0.0
11:13:31,739563.0,0.0,0.0
11:13:31,736559.0,0.0,0.0
11:13:31,738304.0,0.0,0.0
11:13:31,738468.0,0.0,0.0
11:13:31,736494.0,0.0,0.0
11:13:31,739536.0,0.0,0.0
11:13:31,736540.0,0.0,0.0
11:13:31,738290.0,0.0,0.0
11:13:31,738363.0,0.0,0.0
11:13:31,736427.0,0.0,0.0
11:13:31,739450.0,0.0,0.0
11:13:31,736449.0,0.0,0.0
11:13:31,738275.0,0.0,0.0
11:13:31,738301.0,0.0,0.0
11:13:31,736384.0,0.0,0.0
11:13:31,739456.0,0.0,0.0
11:13:31,736428.0,0.0,0.0
11:13:31,738266.0,0.0,0.0
11:13:31,738304.0,0.0,0.0
11:13:31,736399.0,0.0,0.0
11:13:31,739413.0,0.0,0.0
11:13:31,736358.0,0.0,0.0
11:13:32,738231.0,0.0,0.0
11:13:32,738226.0,0.0,0.0
11:13:32,736359.0,0.0,0.0
11:13:32,739356.0,0.0,0.0
11:13:32,736309.0,0.0,0.0
11:13:32,738206.0,0.0,0.0
11:13:32,738141.0,0.0,0.0
11:13:32,736336.0,0.0,0.0
11:13:32,739354.0,0.0,0.0
11:13:32,736268.0,0.0,0.0
11:13:32,738188.0,0.0,0.0
11:13:32,738092.0,0.0,0.0
11:13:32,736324.0,0.0,0.0
11:13:32,739296.0,0.0,0.0
11:13:32,736228.0,0.0,0.0
11:13:32,738196.0,0.0,0.0
11:13:32,738043.0,0.0,0.0
11:13:32,736306.0,0.0,0.0
11:13:32,739278.0,0.0,0.0
11:13:32,736177.0,0.0,0.0
11:13:32,738174.0,0.0,0.0
11:13:32,737971.0,0.0,0.0
11:13:32,736261.0,0.0,0.0
11:13:32,739250.0,0.0,0.0
11:13:32,736141.0,0.0,0.0
11:13:32,738148.0,0.0,0.0
11:13:32,737916.0,0.0,0.0
11:13:32,736273.0,0.0,0.0
11:13:32,739208.0,0.0,0.0
11:13:32,736109.0,0.0,0.0
11:13:32,738177.0,0.0,0.0
11:13:32,737914.0,0.0,0.0
11:13:32,736277.0,0.0,0.0
11:13:32,739189.0,0.0,0.0
11:13:32,736080.0,0.0,0.0
11:13:32,738161.0,0.0,0.0
11:13:32,737845.0,0.0,0.0
11:13:32,736254.0,0.0,0.0
11:13:32,739190.0,0.0,0.0
11:13:32,736073.0,0.0,0.0
11:13:32,738158.0,0.0,0.0
11:13:32,737806.0,0.0,0.0
11:13:32,736271.0,0.0,0.0
11:13:32,739150.0,0.0,0.0
11:13:32,736014.0,0.0,0.0
11:13:32,738180.0,0.0,0.0
11:13:32,737771.0,0.0,0.0
11:13:32,736196.0,0.0,0.0
11:13:32,739095.0,0.0,0.0
11:13:32,735974.0,0.0,0.0
11:13:32,738154.0,0.0,0.0
11:13:32,737716.0,0.0,0.0
11:13:32,736234.0,0.0,0.0
11:13:32,739102.0,0.0,0.0
11:13:32,735957.0,0.0,0.0
11:13:32,738151.0,0.0,0.0
11:13:32,737664.0,0.0,0.0
11:13:32,736185.0,0.0,0.0
11:13:32,739014.0,0.0,0.0
11:13:32,735905.0,0.0,0.0
11:13:32,738269.0,0.0,0.0
11:13:32,737758.0,0.0,0.0
11:13:32,736248.0,0.0,0.0
11:13:32,739065.0,0.0,0.0
11:13:32,735926.0,0.0,0.0
11:13:32,738178.0,0.0,0.0
11:13:32,737628.0,0.0,0.0
11:13:32,736228.0,0.0,0.0
11:13:32,739027.0,0.0,0.0
11:13:32,735871.0,0.0,0.0
11:13:32,738176.0,0.0,0.0
11:13:32,737580.0,0.0,0.0
11:13:32,736221.0,0.0,0.0
11:13:32,738993.0,0.0,0.0
11:13:32,735845.0,0.0,0.0
11:13:32,738160.0,0.0,0.0
11:13:32,737514.0,0.0,0.0
11:13:32,736178.0,0.0,0.0
11:13:32,738949.0,0.0,0.0
11:13:32,735757.0,0.0,0.0
11:13:32,738122.0,0.0,0.0
11:13:32,737423.0,0.0,0.0
11:13:32,736118.0,0.0,0.0
11:13:32,738841.0,0.0,0.0
11:13:32,735666.0,0.0,0.0
11:13:32,738041.0,0.0,0.0
11:13:32,737310.0,0.0,0.0
11:13:32,736073.0,0.0,0.0
11:13:32,738788.0,0.0,0.0
11:13:32,735613.0,0.0,0.0
11:13:32,738023.0,0.0,0.0
11:13:32,737271.0,0.0,0.0
11:13:32,736053.0,0.0,0.0
11:13:32,738778.0,0.0,0.0
11:13:32,735549.0,0.0,0.0
11:13:32,737989.0,0.0,0.0
11:13:32,737213.0,0.0,0.0
11:13:32,736055.0,0.0,0.0
11:13:32,738736.0,0.0,0.0
11:13:32,735557.0,0.0,0.0
11:13:32,737993.0,0.0,0.0
11:13:32,737143.0,0.0,0.0
11:13:32,736003.0,0.0,0.0
11:13:32,738701.0,0.0,0.0
11:13:32,735528.0,0.0,0.0
11:13:32,738039.0,0.0,0.0
11:13:32,737166.0,0.0,0.0
11:13:32,736061.0,0.0,0.0
11:13:32,738688.0,0.0,0.0
11:13:32,735509.0,0.0,0.0
11:13:32,738029.0,0.0,0.0
11:13:32,737084.0,0.0,0.0
11:13:32,736043.0,0.0,0.0
11:13:32,738661.0,0.0,0.0
11:13:32,735474.0,0.0,0.0
11:13:32,738043.0,0.0,0.0
11:13:32,737058.0,0.0,0.0
11:13:32,736034.0,0.0,0.0
11:13:32,738636.0,0.0,0.0
11:13:32,735453.0,0.0,0.0
11:13:32,737986.0,0.0,0.0
11:13:32,737000.0,0.0,0.0
11:13:32,736049.0,0.0,0.0
11:13:32,738611.0,0.0,0.0
11:13:32,735436.0,0.0,0.0
11:13:33,738021.0,0.0,0.0
11:13:33,736971.0,0.0,0.0
11:13:33,736044.0,0.0,0.0
11:13:33,738593.0,0.0,0.0
11:13:33,735391.0,0.0,0.0
11:13:33,738016.0,0.0,0.0
11:13:33,736908.0,0.0,0.0
11:13:33,736016.0,0.0,0.0
11:13:33,738546.0,0.0,0.0
11:13:33,735367.0,0.0,0.0
11:13:33,738020.0,0.0,0.0
11:13:33,736896.0,0.0,0.0
11:13:33,736064.0,0.0,0.0
11:13:33,738551.0,0.0,0.0
11:13:33,735354.0,0.0,0.0
11:13:33,737981.0,0.0,0.0
11:13:33,736843.0,0.0,0.0
11:13:33,736054.0,0.0,0.0
11:13:33,738533.0,0.0,0.0
11:13:33,735380.0,0.0,0.0
11:13:33,738074.0,0.0,0.0
11:13:33,736848.0,0.0,0.0
11:13:33,736045.0,0.0,0.0
11:13:33,738501.0,0.0,0.0
11:13:33,735313.0,0.0,0.0
11:13:33,738024.0,0.0,0.0
11:13:33,736809.0,0.0,0.0
11:13:33,736084.0,0.0,0.0
11:13:33,738497.0,0.0,0.0
11:13:33,735334.0,0.0,0.0
11:13:33,738071.0,0.0,0.0
11:13:33,736783.0,0.0,0.0
11:13:33,736064.0,0.0,0.0
11:13:33,738478.0,0.0,0.0
11:13:33,735301.0,0.0,0.0
11:13:33,738038.0,0.0,0.0
11:13:33,736733.0,0.0,0.0
11:13:33,736099.0,0.0,0.0
11:13:33,738461.0,0.0,0.0
11:13:33,735268.0,0.0,0.0
11:13:33,738049.0,0.0,0.0
11:13:33,736700.0,0.0,0.0
11:13:33,736116.0,0.0,0.0
11:13:33,738449.0,0.0,0.0
11:13:33,735281.0,0.0,0.0
11:13:33,738068.0,0.0,0.0
11:13:33,736677.0,0.0,0.0
11:13:33,736096.0,0.0,0.0
11:13:33,738388.0,0.0,0.0
11:13:33,735248.0,0.0,0.0
11:13:33,738059.0,0.0,0.0
11:13:33,736655.0,0.0,0.0
11:13:33,736128.0,0.0,0.0
11:13:33,738393.0,0.0,0.0
11:13:33,735204.0,0.0,0.0
11:13:33,738058.0,0.0,0.0
11:13:33,736637.0,0.0,0.0
11:13:33,736156.0,0.0,0.0
11:13:33,738371.0,0.0,0.0
11:13:33,735224.0,0.0,0.0
11:13:33,738089.0,0.0,0.0
11:13:33,736568.0,0.0,0.0
11:13:33,736115.0,0.0,0.0
11:13:33,738343.0,0.0,0.0
11:13:33,735217.0,0.0,0.0
11:13:33,738058.0,0.0,0.0
11:13:33,736558.0,0.0,0.0
11:13:33,736143.0,0.0,0.0
11:13:33,738305.0,0.0,0.0
11:13:33,735158.0,0.0,0.0
11:13:33,738034.0,0.0,0.0
11:13:33,736489.0,0.0,0.0
11:13:33,736157.0,0.0,0.0
11:13:33,738290.0,0.0,0.0
11:13:33,735181.0,0.0,0.0
11:13:33,738052.0,0.0,0.0
11:13:33,736459.0,0.0,0.0
11:13:33,736148.0,0.0,0.0
11:13:33,738284.0,0.0,0.0
11:13:33,735198.0,0.0,0.0
11:13:33,738083.0,0.0,0.0
11:13:33,736419.0,0.0,0.0
11:13:33,736139.0,0.0,0.0
11:13:33,738256.0,0.0,0.0
11:13:33,735167.0,0.0,0.0
11:13:33,738093.0,0.0,0.0
11:13:33,736425.0,0.0,0.0
11:13:33,736114.0,0.0,0.0
11:13:33,738143.0,0.0,0.0
11:13:33,735144.0,0.0,0.0
11:13:33,738196.0,0.0,0.0
11:13:33,736464.0,0.0,0.0
11:13:33,736196.0,0.0,0.0
11:13:33,738173.0,0.0,0.0
11:13:33,735128.0,0.0,0.0
11:13:33,738093.0,0.0,0.0
11:13:33,736344.0,0.0,0.0
11:13:33,736198.0,0.0,0.0
11:13:33,738191.0,0.0,0.0
11:13:33,735109.0,0.0,0.0
