TimeStramp,ECG,SpO2,Respiration
11:23:15,636069.0,0.0,0.0
11:23:15,636336.0,0.0,0.0
11:23:15,634984.0,0.0,0.0
11:23:15,636913.0,0.0,0.0
11:23:15,635136.0,0.0,0.0
11:23:15,636081.0,0.0,0.0
11:23:15,636293.0,0.0,0.0
11:23:15,634944.0,0.0,0.0
11:23:15,636891.0,0.0,0.0
11:23:15,635104.0,0.0,0.0
11:23:15,636029.0,0.0,0.0
11:23:15,636260.0,0.0,0.0
11:23:15,634926.0,0.0,0.0
11:23:15,636877.0,0.0,0.0
11:23:15,634996.0,0.0,0.0
11:23:15,635970.0,0.0,0.0
11:23:15,636175.0,0.0,0.0
11:23:15,634836.0,0.0,0.0
11:23:15,636789.0,0.0,0.0
11:23:15,634956.0,0.0,0.0
11:23:15,635964.0,0.0,0.0
11:23:15,636153.0,0.0,0.0
11:23:15,634809.0,0.0,0.0
11:23:15,636780.0,0.0,0.0
11:23:15,634927.0,0.0,0.0
11:23:15,635916.0,0.0,0.0
11:23:15,636094.0,0.0,0.0
11:23:15,634786.0,0.0,0.0
11:23:15,636741.0,0.0,0.0
11:23:15,634911.0,0.0,0.0
11:23:15,635944.0,0.0,0.0
11:23:15,636085.0,0.0,0.0
11:23:15,634744.0,0.0,0.0
11:23:15,636682.0,0.0,0.0
11:23:15,634853.0,0.0,0.0
11:23:15,635929.0,0.0,0.0
11:23:15,636079.0,0.0,0.0
11:23:15,634829.0,0.0,0.0
11:23:15,636761.0,0.0,0.0
11:23:15,634859.0,0.0,0.0
11:23:15,635944.0,0.0,0.0
11:23:15,636072.0,0.0,0.0
11:23:15,634803.0,0.0,0.0
11:23:15,636773.0,0.0,0.0
11:23:15,634931.0,0.0,0.0
11:23:15,636000.0,0.0,0.0
11:23:15,636071.0,0.0,0.0
11:23:15,634828.0,0.0,0.0
11:23:15,636746.0,0.0,0.0
11:23:15,634894.0,0.0,0.0
11:23:15,636007.0,0.0,0.0
11:23:15,636086.0,0.0,0.0
11:23:15,634851.0,0.0,0.0
11:23:15,636799.0,0.0,0.0
11:23:15,634900.0,0.0,0.0
11:23:15,636004.0,0.0,0.0
11:23:15,636068.0,0.0,0.0
11:23:15,634865.0,0.0,0.0
11:23:15,636818.0,0.0,0.0
11:23:15,634950.0,0.0,0.0
11:23:15,636065.0,0.0,0.0
11:23:15,636113.0,0.0,0.0
11:23:15,634924.0,0.0,0.0
11:23:15,636805.0,0.0,0.0
11:23:15,634911.0,0.0,0.0
11:23:15,636059.0,0.0,0.0
11:23:15,636070.0,0.0,0.0
11:23:15,634881.0,0.0,0.0
11:23:15,636769.0,0.0,0.0
11:23:15,634874.0,0.0,0.0
11:23:15,636051.0,0.0,0.0
11:23:15,636066.0,0.0,0.0
11:23:15,634903.0,0.0,0.0
11:23:15,636804.0,0.0,0.0
11:23:15,634908.0,0.0,0.0
11:23:15,636098.0,0.0,0.0
11:23:15,636064.0,0.0,0.0
11:23:15,634918.0,0.0,0.0
11:23:15,636841.0,0.0,0.0
11:23:15,634923.0,0.0,0.0
11:23:15,636135.0,0.0,0.0
11:23:15,636096.0,0.0,0.0
11:23:15,634939.0,0.0,0.0
11:23:15,636828.0,0.0,0.0
11:23:15,634933.0,0.0,0.0
11:23:15,636133.0,0.0,0.0
11:23:15,636071.0,0.0,0.0
11:23:15,634958.0,0.0,0.0
11:23:15,636842.0,0.0,0.0
11:23:15,634914.0,0.0,0.0
11:23:15,636136.0,0.0,0.0
11:23:15,636062.0,0.0,0.0
11:23:15,634949.0,0.0,0.0
11:23:15,636827.0,0.0,0.0
11:23:15,634899.0,0.0,0.0
11:23:15,636148.0,0.0,0.0
11:23:15,636064.0,0.0,0.0
11:23:15,634972.0,0.0,0.0
11:23:15,636842.0,0.0,0.0
11:23:15,634905.0,0.0,0.0
11:23:15,636190.0,0.0,0.0
11:23:15,636046.0,0.0,0.0
11:23:15,634994.0,0.0,0.0
11:23:15,636882.0,0.0,0.0
11:23:15,634902.0,0.0,0.0
11:23:15,636164.0,0.0,0.0
11:23:15,636023.0,0.0,0.0
11:23:15,635016.0,0.0,0.0
11:23:15,636867.0,0.0,0.0
11:23:15,634924.0,0.0,0.0
11:23:15,636191.0,0.0,0.0
11:23:15,636039.0,0.0,0.0
11:23:15,635008.0,0.0,0.0
11:23:15,636856.0,0.0,0.0
11:23:15,634902.0,0.0,0.0
11:23:15,636236.0,0.0,0.0
11:23:15,636077.0,0.0,0.0
11:23:15,635006.0,0.0,0.0
11:23:15,636836.0,0.0,0.0
11:23:15,634915.0,0.0,0.0
11:23:15,636204.0,0.0,0.0
11:23:15,635994.0,0.0,0.0
11:23:15,635003.0,0.0,0.0
11:23:15,636848.0,0.0,0.0
11:23:16,634906.0,0.0,0.0
11:23:16,636218.0,0.0,0.0
11:23:16,635994.0,0.0,0.0
11:23:16,635034.0,0.0,0.0
11:23:16,636861.0,0.0,0.0
11:23:16,634893.0,0.0,0.0
11:23:16,636264.0,0.0,0.0
11:23:16,636026.0,0.0,0.0
11:23:16,635053.0,0.0,0.0
11:23:16,636848.0,0.0,0.0
11:23:16,634899.0,0.0,0.0
11:23:16,636275.0,0.0,0.0
11:23:16,636040.0,0.0,0.0
11:23:16,635071.0,0.0,0.0
11:23:16,636874.0,0.0,0.0
11:23:16,634921.0,0.0,0.0
11:23:16,636313.0,0.0,0.0
11:23:16,636039.0,0.0,0.0
11:23:16,635102.0,0.0,0.0
11:23:16,636880.0,0.0,0.0
11:23:16,634928.0,0.0,0.0
11:23:16,636292.0,0.0,0.0
11:23:16,635971.0,0.0,0.0
11:23:16,635044.0,0.0,0.0
11:23:16,636818.0,0.0,0.0
11:23:16,634946.0,0.0,0.0
11:23:16,636423.0,0.0,0.0
11:23:16,636099.0,0.0,0.0
11:23:16,635191.0,0.0,0.0
11:23:16,636905.0,0.0,0.0
11:23:16,634951.0,0.0,0.0
11:23:16,636403.0,0.0,0.0
11:23:16,636033.0,0.0,0.0
11:23:16,635139.0,0.0,0.0
11:23:16,636942.0,0.0,0.0
11:23:16,634966.0,0.0,0.0
11:23:16,636398.0,0.0,0.0
11:23:16,636020.0,0.0,0.0
11:23:16,635146.0,0.0,0.0
11:23:16,636909.0,0.0,0.0
11:23:16,634935.0,0.0,0.0
11:23:16,636379.0,0.0,0.0
11:23:16,635998.0,0.0,0.0
11:23:16,635148.0,0.0,0.0
11:23:16,636863.0,0.0,0.0
11:23:16,634889.0,0.0,0.0
11:23:16,636349.0,0.0,0.0
11:23:16,635924.0,0.0,0.0
11:23:16,635106.0,0.0,0.0
11:23:16,636767.0,0.0,0.0
11:23:16,634811.0,0.0,0.0
11:23:16,636285.0,0.0,0.0
11:23:16,635832.0,0.0,0.0
11:23:16,635006.0,0.0,0.0
11:23:16,636737.0,0.0,0.0
11:23:16,634789.0,0.0,0.0
11:23:16,636238.0,0.0,0.0
11:23:16,635816.0,0.0,0.0
11:23:16,635024.0,0.0,0.0
11:23:16,636736.0,0.0,0.0
11:23:16,634783.0,0.0,0.0
11:23:16,636265.0,0.0,0.0
11:23:16,635791.0,0.0,0.0
11:23:16,635018.0,0.0,0.0
11:23:16,636747.0,0.0,0.0
11:23:16,634788.0,0.0,0.0
11:23:16,636297.0,0.0,0.0
11:23:16,635811.0,0.0,0.0
11:23:16,635083.0,0.0,0.0
11:23:16,636758.0,0.0,0.0
11:23:16,634797.0,0.0,0.0
11:23:16,636320.0,0.0,0.0
11:23:16,635826.0,0.0,0.0
11:23:16,635114.0,0.0,0.0
11:23:16,636820.0,0.0,0.0
11:23:16,634818.0,0.0,0.0
11:23:16,636333.0,0.0,0.0
11:23:16,635853.0,0.0,0.0
11:23:16,635134.0,0.0,0.0
11:23:16,636786.0,0.0,0.0
11:23:16,634798.0,0.0,0.0
11:23:16,636338.0,0.0,0.0
11:23:16,635791.0,0.0,0.0
11:23:16,635128.0,0.0,0.0
11:23:16,636784.0,0.0,0.0
11:23:16,634821.0,0.0,0.0
11:23:16,636378.0,0.0,0.0
11:23:16,635819.0,0.0,0.0
11:23:16,635149.0,0.0,0.0
11:23:16,636832.0,0.0,0.0
11:23:16,634823.0,0.0,0.0
11:23:16,636361.0,0.0,0.0
11:23:16,635816.0,0.0,0.0
11:23:16,635193.0,0.0,0.0
11:23:16,636844.0,0.0,0.0
11:23:16,634868.0,0.0,0.0
11:23:16,636411.0,0.0,0.0
11:23:16,635808.0,0.0,0.0
11:23:16,635205.0,0.0,0.0
11:23:16,636851.0,0.0,0.0
11:23:16,634850.0,0.0,0.0
11:23:16,636441.0,0.0,0.0
11:23:16,635838.0,0.0,0.0
11:23:16,635244.0,0.0,0.0
11:23:16,636853.0,0.0,0.0
11:23:16,634847.0,0.0,0.0
11:23:16,636451.0,0.0,0.0
11:23:16,635862.0,0.0,0.0
11:23:16,635263.0,0.0,0.0
11:23:16,636862.0,0.0,0.0
11:23:16,634871.0,0.0,0.0
11:23:16,636493.0,0.0,0.0
11:23:16,635841.0,0.0,0.0
11:23:16,635270.0,0.0,0.0
11:23:16,636873.0,0.0,0.0
11:23:16,634907.0,0.0,0.0
11:23:16,636518.0,0.0,0.0
11:23:16,635852.0,0.0,0.0
11:23:16,635298.0,0.0,0.0
11:23:16,636871.0,0.0,0.0
11:23:16,634869.0,0.0,0.0
11:23:16,636518.0,0.0,0.0
11:23:16,635849.0,0.0,0.0
11:23:16,635308.0,0.0,0.0
11:23:16,636884.0,0.0,0.0
11:23:17,634900.0,0.0,0.0
11:23:17,636559.0,0.0,0.0
11:23:17,635872.0,0.0,0.0
11:23:17,635326.0,0.0,0.0
11:23:17,636888.0,0.0,0.0
11:23:17,634926.0,0.0,0.0
11:23:17,636574.0,0.0,0.0
11:23:17,635860.0,0.0,0.0
11:23:17,635349.0,0.0,0.0
11:23:17,636904.0,0.0,0.0
11:23:17,634924.0,0.0,0.0
11:23:17,636591.0,0.0,0.0
11:23:17,635876.0,0.0,0.0
11:23:17,635400.0,0.0,0.0
11:23:17,636917.0,0.0,0.0
11:23:17,634904.0,0.0,0.0
11:23:17,636588.0,0.0,0.0
11:23:17,635865.0,0.0,0.0
11:23:17,635383.0,0.0,0.0
11:23:17,636919.0,0.0,0.0
11:23:17,634932.0,0.0,0.0
11:23:17,636646.0,0.0,0.0
11:23:17,635858.0,0.0,0.0
11:23:17,635368.0,0.0,0.0
11:23:17,636879.0,0.0,0.0
11:23:17,634940.0,0.0,0.0
11:23:17,636628.0,0.0,0.0
11:23:17,635824.0,0.0,0.0
11:23:17,635422.0,0.0,0.0
11:23:17,636943.0,0.0,0.0
11:23:17,634954.0,0.0,0.0
11:23:17,636641.0,0.0,0.0
11:23:17,635838.0,0.0,0.0
11:23:17,635461.0,0.0,0.0
11:23:17,636944.0,0.0,0.0
11:23:17,634956.0,0.0,0.0
11:23:17,636654.0,0.0,0.0
11:23:17,635839.0,0.0,0.0
11:23:17,635431.0,0.0,0.0
11:23:17,636898.0,0.0,0.0
11:23:17,634918.0,0.0,0.0
11:23:17,636678.0,0.0,0.0
11:23:17,635854.0,0.0,0.0
11:23:17,635491.0,0.0,0.0
11:23:17,636929.0,0.0,0.0
11:23:17,634929.0,0.0,0.0
11:23:17,636674.0,0.0,0.0
11:23:17,635823.0,0.0,0.0
11:23:17,635449.0,0.0,0.0
11:23:17,636856.0,0.0,0.0
11:23:17,634900.0,0.0,0.0
11:23:17,636731.0,0.0,0.0
11:23:17,635890.0,0.0,0.0
11:23:17,635552.0,0.0,0.0
11:23:17,636953.0,0.0,0.0
11:23:17,634924.0,0.0,0.0
11:23:17,636671.0,0.0,0.0
11:23:17,635788.0,0.0,0.0
11:23:17,635470.0,0.0,0.0
11:23:17,636877.0,0.0,0.0
11:23:17,634940.0,0.0,0.0
11:23:17,636684.0,0.0,0.0
11:23:17,635800.0,0.0,0.0
11:23:17,635506.0,0.0,0.0
11:23:17,636884.0,0.0,0.0
11:23:17,634924.0,0.0,0.0
11:23:17,636723.0,0.0,0.0
11:23:17,635795.0,0.0,0.0
11:23:17,635469.0,0.0,0.0
11:23:17,636828.0,0.0,0.0
11:23:17,634896.0,0.0,0.0
11:23:17,636661.0,0.0,0.0
11:23:17,635706.0,0.0,0.0
11:23:17,635417.0,0.0,0.0
11:23:17,636759.0,0.0,0.0
11:23:17,634815.0,0.0,0.0
11:23:17,636616.0,0.0,0.0
11:23:17,635636.0,0.0,0.0
11:23:17,635400.0,0.0,0.0
11:23:17,636737.0,0.0,0.0
11:23:17,634785.0,0.0,0.0
11:23:17,636574.0,0.0,0.0
11:23:17,635579.0,0.0,0.0
11:23:17,635366.0,0.0,0.0
11:23:17,636698.0,0.0,0.0
11:23:17,634736.0,0.0,0.0
11:23:17,636559.0,0.0,0.0
11:23:17,635595.0,0.0,0.0
11:23:17,635412.0,0.0,0.0
11:23:17,636734.0,0.0,0.0
11:23:17,634773.0,0.0,0.0
11:23:17,636596.0,0.0,0.0
11:23:17,635606.0,0.0,0.0
11:23:17,635410.0,0.0,0.0
11:23:17,636709.0,0.0,0.0
11:23:17,634772.0,0.0,0.0
11:23:17,636618.0,0.0,0.0
11:23:17,635559.0,0.0,0.0
11:23:17,635410.0,0.0,0.0
11:23:17,636701.0,0.0,0.0
11:23:17,634788.0,0.0,0.0
11:23:17,636597.0,0.0,0.0
11:23:17,635544.0,0.0,0.0
11:23:17,635425.0,0.0,0.0
11:23:17,636704.0,0.0,0.0
11:23:17,634761.0,0.0,0.0
11:23:17,636586.0,0.0,0.0
11:23:17,635528.0,0.0,0.0
11:23:17,635415.0,0.0,0.0
11:23:17,636691.0,0.0,0.0
11:23:17,634791.0,0.0,0.0
11:23:17,636629.0,0.0,0.0
11:23:17,635549.0,0.0,0.0
11:23:17,635456.0,0.0,0.0
11:23:17,636679.0,0.0,0.0
11:23:17,634773.0,0.0,0.0
11:23:17,636637.0,0.0,0.0
11:23:17,635539.0,0.0,0.0
11:23:17,635434.0,0.0,0.0
11:23:17,636636.0,0.0,0.0
11:23:17,634730.0,0.0,0.0
11:23:17,636623.0,0.0,0.0
11:23:17,635542.0,0.0,0.0
11:23:17,635446.0,0.0,0.0
11:23:17,636658.0,0.0,0.0
11:23:18,634763.0,0.0,0.0
11:23:18,636626.0,0.0,0.0
11:23:18,635519.0,0.0,0.0
11:23:18,635474.0,0.0,0.0
11:23:18,636671.0,0.0,0.0
11:23:18,634791.0,0.0,0.0
11:23:18,636639.0,0.0,0.0
11:23:18,635501.0,0.0,0.0
11:23:18,635449.0,0.0,0.0
11:23:18,636646.0,0.0,0.0
11:23:18,634784.0,0.0,0.0
11:23:18,636642.0,0.0,0.0
11:23:18,635482.0,0.0,0.0
11:23:18,635456.0,0.0,0.0
11:23:18,636643.0,0.0,0.0
11:23:18,634759.0,0.0,0.0
11:23:18,636633.0,0.0,0.0
11:23:18,635441.0,0.0,0.0
11:23:18,635442.0,0.0,0.0
11:23:18,636586.0,0.0,0.0
11:23:18,634728.0,0.0,0.0
11:23:18,636595.0,0.0,0.0
11:23:18,635423.0,0.0,0.0
11:23:18,635437.0,0.0,0.0
11:23:18,636554.0,0.0,0.0
11:23:18,634724.0,0.0,0.0
11:23:18,636559.0,0.0,0.0
11:23:18,635396.0,0.0,0.0
11:23:18,635433.0,0.0,0.0
11:23:18,636526.0,0.0,0.0
11:23:18,634704.0,0.0,0.0
11:23:18,636523.0,0.0,0.0
11:23:18,635353.0,0.0,0.0
11:23:18,635418.0,0.0,0.0
11:23:18,636477.0,0.0,0.0
11:23:18,634723.0,0.0,0.0
11:23:18,636541.0,0.0,0.0
11:23:18,635339.0,0.0,0.0
11:23:18,635425.0,0.0,0.0
11:23:18,636477.0,0.0,0.0
11:23:18,634683.0,0.0,0.0
11:23:18,636593.0,0.0,0.0
11:23:18,635327.0,0.0,0.0
11:23:18,635411.0,0.0,0.0
11:23:18,636479.0,0.0,0.0
11:23:18,634628.0,0.0,0.0
11:23:18,636516.0,0.0,0.0
11:23:18,635246.0,0.0,0.0
11:23:18,635348.0,0.0,0.0
11:23:18,636405.0,0.0,0.0
11:23:18,634599.0,0.0,0.0
11:23:18,636497.0,0.0,0.0
11:23:18,635248.0,0.0,0.0
11:23:18,635368.0,0.0,0.0
11:23:18,636396.0,0.0,0.0
11:23:18,634598.0,0.0,0.0
11:23:18,636485.0,0.0,0.0
11:23:18,635196.0,0.0,0.0
11:23:18,635371.0,0.0,0.0
11:23:18,636384.0,0.0,0.0
11:23:18,634587.0,0.0,0.0
11:23:18,636476.0,0.0,0.0
11:23:18,635178.0,0.0,0.0
11:23:18,635391.0,0.0,0.0
11:23:18,636399.0,0.0,0.0
11:23:18,634558.0,0.0,0.0
11:23:18,636464.0,0.0,0.0
11:23:18,635150.0,0.0,0.0
11:23:18,635323.0,0.0,0.0
11:23:18,636319.0,0.0,0.0
11:23:18,634524.0,0.0,0.0
11:23:18,636461.0,0.0,0.0
11:23:18,635109.0,0.0,0.0
11:23:18,635312.0,0.0,0.0
11:23:18,636249.0,0.0,0.0
11:23:18,634461.0,0.0,0.0
11:23:18,636435.0,0.0,0.0
11:23:18,635168.0,0.0,0.0
11:23:18,635414.0,0.0,0.0
11:23:18,636318.0,0.0,0.0
11:23:18,634469.0,0.0,0.0
11:23:18,636375.0,0.0,0.0
11:23:18,635041.0,0.0,0.0
11:23:18,635302.0,0.0,0.0
11:23:18,636266.0,0.0,0.0
11:23:18,634476.0,0.0,0.0
11:23:18,636412.0,0.0,0.0
11:23:18,635021.0,0.0,0.0
11:23:18,635306.0,0.0,0.0
11:23:18,636233.0,0.0,0.0
11:23:18,634456.0,0.0,0.0
11:23:18,636384.0,0.0,0.0
11:23:18,635001.0,0.0,0.0
11:23:18,635266.0,0.0,0.0
11:23:18,636138.0,0.0,0.0
11:23:18,634377.0,0.0,0.0
11:23:18,636284.0,0.0,0.0
11:23:18,634925.0,0.0,0.0
11:23:18,635204.0,0.0,0.0
11:23:18,636103.0,0.0,0.0
11:23:18,634349.0,0.0,0.0
11:23:18,636268.0,0.0,0.0
11:23:18,634868.0,0.0,0.0
11:23:18,635175.0,0.0,0.0
11:23:18,636023.0,0.0,0.0
11:23:18,634274.0,0.0,0.0
11:23:18,636213.0,0.0,0.0
11:23:18,634781.0,0.0,0.0
11:23:18,635136.0,0.0,0.0
11:23:18,635983.0,0.0,0.0
11:23:18,634263.0,0.0,0.0
11:23:18,636219.0,0.0,0.0
11:23:18,634761.0,0.0,0.0
11:23:18,635116.0,0.0,0.0
11:23:18,635983.0,0.0,0.0
11:23:18,634251.0,0.0,0.0
11:23:18,636177.0,0.0,0.0
11:23:18,634732.0,0.0,0.0
11:23:18,635109.0,0.0,0.0
11:23:18,635934.0,0.0,0.0
11:23:18,634224.0,0.0,0.0
11:23:18,636208.0,0.0,0.0
11:23:18,634748.0,0.0,0.0
11:23:18,635125.0,0.0,0.0
11:23:18,635916.0,0.0,0.0
11:23:19,634209.0,0.0,0.0
11:23:19,636184.0,0.0,0.0
11:23:19,634703.0,0.0,0.0
11:23:19,635119.0,0.0,0.0
11:23:19,635902.0,0.0,0.0
11:23:19,634191.0,0.0,0.0
11:23:19,636173.0,0.0,0.0
11:23:19,634689.0,0.0,0.0
11:23:19,635119.0,0.0,0.0
11:23:19,635899.0,0.0,0.0
11:23:19,634199.0,0.0,0.0
11:23:19,636198.0,0.0,0.0
11:23:19,634696.0,0.0,0.0
11:23:19,635144.0,0.0,0.0
11:23:19,635873.0,0.0,0.0
11:23:19,634185.0,0.0,0.0
11:23:19,636175.0,0.0,0.0
11:23:19,634667.0,0.0,0.0
11:23:19,635118.0,0.0,0.0
11:23:19,635862.0,0.0,0.0
11:23:19,634194.0,0.0,0.0
11:23:19,636175.0,0.0,0.0
11:23:19,634626.0,0.0,0.0
11:23:19,635111.0,0.0,0.0
11:23:19,635848.0,0.0,0.0
11:23:19,634167.0,0.0,0.0
11:23:19,636160.0,0.0,0.0
11:23:19,634603.0,0.0,0.0
11:23:19,635098.0,0.0,0.0
11:23:19,635790.0,0.0,0.0
11:23:19,634158.0,0.0,0.0
11:23:19,636170.0,0.0,0.0
11:23:19,634609.0,0.0,0.0
11:23:19,635141.0,0.0,0.0
11:23:19,635819.0,0.0,0.0
11:23:19,634148.0,0.0,0.0
11:23:19,636183.0,0.0,0.0
11:23:19,634621.0,0.0,0.0
11:23:19,635165.0,0.0,0.0
11:23:19,635842.0,0.0,0.0
11:23:19,634206.0,0.0,0.0
11:23:19,636176.0,0.0,0.0
11:23:19,634586.0,0.0,0.0
11:23:19,635181.0,0.0,0.0
11:23:19,635836.0,0.0,0.0
11:23:19,634181.0,0.0,0.0
11:23:19,636146.0,0.0,0.0
11:23:19,634539.0,0.0,0.0
11:23:19,635143.0,0.0,0.0
11:23:19,635791.0,0.0,0.0
11:23:19,634176.0,0.0,0.0
11:23:19,636164.0,0.0,0.0
11:23:19,634569.0,0.0,0.0
11:23:19,635174.0,0.0,0.0
11:23:19,635824.0,0.0,0.0
11:23:19,634196.0,0.0,0.0
11:23:19,636181.0,0.0,0.0
11:23:19,634583.0,0.0,0.0
11:23:19,635209.0,0.0,0.0
11:23:19,635786.0,0.0,0.0
11:23:19,634169.0,0.0,0.0
11:23:19,636182.0,0.0,0.0
11:23:19,634560.0,0.0,0.0
11:23:19,635186.0,0.0,0.0
11:23:19,635766.0,0.0,0.0
11:23:19,634202.0,0.0,0.0
11:23:19,636176.0,0.0,0.0
11:23:19,634534.0,0.0,0.0
11:23:19,635188.0,0.0,0.0
11:23:19,635767.0,0.0,0.0
11:23:19,634168.0,0.0,0.0
11:23:19,636183.0,0.0,0.0
11:23:19,634540.0,0.0,0.0
11:23:19,635210.0,0.0,0.0
11:23:19,635759.0,0.0,0.0
11:23:19,634206.0,0.0,0.0
11:23:19,636211.0,0.0,0.0
11:23:19,634534.0,0.0,0.0
11:23:19,635214.0,0.0,0.0
11:23:19,635739.0,0.0,0.0
11:23:19,634191.0,0.0,0.0
11:23:19,636195.0,0.0,0.0
11:23:19,634513.0,0.0,0.0
11:23:19,635258.0,0.0,0.0
11:23:19,635751.0,0.0,0.0
11:23:19,634179.0,0.0,0.0
11:23:19,636186.0,0.0,0.0
11:23:19,634508.0,0.0,0.0
11:23:19,635239.0,0.0,0.0
11:23:19,635703.0,0.0,0.0
11:23:19,634174.0,0.0,0.0
11:23:19,636154.0,0.0,0.0
11:23:19,634476.0,0.0,0.0
11:23:19,635216.0,0.0,0.0
11:23:19,635714.0,0.0,0.0
11:23:19,634210.0,0.0,0.0
11:23:19,636174.0,0.0,0.0
11:23:19,634484.0,0.0,0.0
11:23:19,635263.0,0.0,0.0
11:23:19,635709.0,0.0,0.0
11:23:19,634204.0,0.0,0.0
11:23:19,636210.0,0.0,0.0
11:23:19,634472.0,0.0,0.0
11:23:19,635267.0,0.0,0.0
11:23:19,635691.0,0.0,0.0
11:23:19,634155.0,0.0,0.0
11:23:19,636098.0,0.0,0.0
11:23:19,634393.0,0.0,0.0
11:23:19,635310.0,0.0,0.0
11:23:19,635784.0,0.0,0.0
11:23:19,634285.0,0.0,0.0
11:23:19,636203.0,0.0,0.0
11:23:19,634458.0,0.0,0.0
11:23:19,635241.0,0.0,0.0
11:23:19,635649.0,0.0,0.0
11:23:19,634203.0,0.0,0.0
11:23:19,636207.0,0.0,0.0
11:23:19,634475.0,0.0,0.0
11:23:19,635301.0,0.0,0.0
11:23:19,635704.0,0.0,0.0
11:23:19,634247.0,0.0,0.0
11:23:19,636204.0,0.0,0.0
11:23:19,634471.0,0.0,0.0
11:23:19,635361.0,0.0,0.0
11:23:19,635694.0,0.0,0.0
11:23:20,634247.0,0.0,0.0
11:23:20,636234.0,0.0,0.0
11:23:20,634474.0,0.0,0.0
11:23:20,635354.0,0.0,0.0
11:23:20,635649.0,0.0,0.0
11:23:20,634199.0,0.0,0.0
11:23:20,636187.0,0.0,0.0
11:23:20,634411.0,0.0,0.0
11:23:20,635319.0,0.0,0.0
11:23:20,635596.0,0.0,0.0
11:23:20,634181.0,0.0,0.0
11:23:20,636166.0,0.0,0.0
11:23:20,634403.0,0.0,0.0
11:23:20,635319.0,0.0,0.0
11:23:20,635594.0,0.0,0.0
11:23:20,634196.0,0.0,0.0
11:23:20,636201.0,0.0,0.0
11:23:20,634392.0,0.0,0.0
11:23:20,635295.0,0.0,0.0
11:23:20,635579.0,0.0,0.0
11:23:20,634208.0,0.0,0.0
11:23:20,636204.0,0.0,0.0
11:23:20,634391.0,0.0,0.0
11:23:20,635346.0,0.0,0.0
11:23:20,635620.0,0.0,0.0
11:23:20,634278.0,0.0,0.0
11:23:20,636241.0,0.0,0.0
11:23:20,634420.0,0.0,0.0
11:23:20,635395.0,0.0,0.0
11:23:20,635626.0,0.0,0.0
11:23:20,634284.0,0.0,0.0
11:23:20,636266.0,0.0,0.0
11:23:20,634429.0,0.0,0.0
11:23:20,635400.0,0.0,0.0
11:23:20,635629.0,0.0,0.0
11:23:20,634293.0,0.0,0.0
11:23:20,636258.0,0.0,0.0
11:23:20,634424.0,0.0,0.0
11:23:20,635440.0,0.0,0.0
11:23:20,635642.0,0.0,0.0
11:23:20,634314.0,0.0,0.0
11:23:20,636269.0,0.0,0.0
11:23:20,634436.0,0.0,0.0
11:23:20,635477.0,0.0,0.0
11:23:20,635676.0,0.0,0.0
11:23:20,634376.0,0.0,0.0
11:23:20,636320.0,0.0,0.0
11:23:20,634456.0,0.0,0.0
11:23:20,635505.0,0.0,0.0
11:23:20,635673.0,0.0,0.0
11:23:20,634378.0,0.0,0.0
11:23:20,636316.0,0.0,0.0
11:23:20,634464.0,0.0,0.0
11:23:20,635498.0,0.0,0.0
11:23:20,635668.0,0.0,0.0
11:23:20,634391.0,0.0,0.0
11:23:20,636302.0,0.0,0.0
11:23:20,634467.0,0.0,0.0
11:23:20,635557.0,0.0,0.0
11:23:20,635655.0,0.0,0.0
11:23:20,634396.0,0.0,0.0
11:23:20,636357.0,0.0,0.0
11:23:20,634478.0,0.0,0.0
11:23:20,635571.0,0.0,0.0
11:23:20,635684.0,0.0,0.0
11:23:20,634427.0,0.0,0.0
11:23:20,636354.0,0.0,0.0
11:23:20,634493.0,0.0,0.0
11:23:20,635607.0,0.0,0.0
11:23:20,635716.0,0.0,0.0
11:23:20,634506.0,0.0,0.0
11:23:20,636444.0,0.0,0.0
11:23:20,634552.0,0.0,0.0
11:23:20,635667.0,0.0,0.0
11:23:20,635725.0,0.0,0.0
11:23:20,634529.0,0.0,0.0
11:23:20,636433.0,0.0,0.0
11:23:20,634558.0,0.0,0.0
11:23:20,635711.0,0.0,0.0
11:23:20,635736.0,0.0,0.0
11:23:20,634550.0,0.0,0.0
11:23:20,636492.0,0.0,0.0
11:23:20,634586.0,0.0,0.0
11:23:20,635744.0,0.0,0.0
11:23:20,635779.0,0.0,0.0
11:23:20,634556.0,0.0,0.0
11:23:20,636504.0,0.0,0.0
11:23:20,634580.0,0.0,0.0
11:23:20,635729.0,0.0,0.0
11:23:20,635781.0,0.0,0.0
11:23:20,634631.0,0.0,0.0
11:23:20,636526.0,0.0,0.0
11:23:20,634613.0,0.0,0.0
11:23:20,635792.0,0.0,0.0
11:23:20,635784.0,0.0,0.0
11:23:20,634613.0,0.0,0.0
11:23:20,636532.0,0.0,0.0
11:23:20,634639.0,0.0,0.0
11:23:20,635825.0,0.0,0.0
11:23:20,635787.0,0.0,0.0
11:23:20,634656.0,0.0,0.0
11:23:20,636567.0,0.0,0.0
11:23:20,634666.0,0.0,0.0
11:23:20,635865.0,0.0,0.0
11:23:20,635813.0,0.0,0.0
11:23:20,634656.0,0.0,0.0
11:23:20,636552.0,0.0,0.0
11:23:20,634653.0,0.0,0.0
11:23:20,635886.0,0.0,0.0
11:23:20,635838.0,0.0,0.0
11:23:20,634725.0,0.0,0.0
11:23:20,636589.0,0.0,0.0
11:23:20,634665.0,0.0,0.0
11:23:20,635882.0,0.0,0.0
11:23:20,635820.0,0.0,0.0
11:23:20,634738.0,0.0,0.0
11:23:20,636638.0,0.0,0.0
11:23:20,634707.0,0.0,0.0
11:23:20,635964.0,0.0,0.0
11:23:20,635871.0,0.0,0.0
11:23:20,634779.0,0.0,0.0
11:23:20,636642.0,0.0,0.0
11:23:20,634715.0,0.0,0.0
11:23:20,636011.0,0.0,0.0
11:23:20,635868.0,0.0,0.0
11:23:21,634791.0,0.0,0.0
11:23:21,636636.0,0.0,0.0
11:23:21,634691.0,0.0,0.0
11:23:21,635993.0,0.0,0.0
11:23:21,635839.0,0.0,0.0
11:23:21,634767.0,0.0,0.0
11:23:21,636623.0,0.0,0.0
11:23:21,634698.0,0.0,0.0
11:23:21,635973.0,0.0,0.0
11:23:21,635797.0,0.0,0.0
11:23:21,634779.0,0.0,0.0
11:23:21,636703.0,0.0,0.0
11:23:21,634833.0,0.0,0.0
11:23:21,636114.0,0.0,0.0
11:23:21,635908.0,0.0,0.0
11:23:21,634841.0,0.0,0.0
11:23:21,636658.0,0.0,0.0
11:23:21,634718.0,0.0,0.0
11:23:21,636050.0,0.0,0.0
11:23:21,635841.0,0.0,0.0
11:23:21,634858.0,0.0,0.0
11:23:21,636657.0,0.0,0.0
11:23:21,634740.0,0.0,0.0
11:23:21,636058.0,0.0,0.0
11:23:21,635856.0,0.0,0.0
11:23:21,634870.0,0.0,0.0
11:23:21,636681.0,0.0,0.0
11:23:21,634711.0,0.0,0.0
11:23:21,636046.0,0.0,0.0
11:23:21,635800.0,0.0,0.0
11:23:21,634811.0,0.0,0.0
11:23:21,636623.0,0.0,0.0
11:23:21,634678.0,0.0,0.0
11:23:21,636030.0,0.0,0.0
11:23:21,635790.0,0.0,0.0
11:23:21,634844.0,0.0,0.0
11:23:21,636627.0,0.0,0.0
11:23:21,634626.0,0.0,0.0
11:23:21,636024.0,0.0,0.0
11:23:21,635740.0,0.0,0.0
11:23:21,634791.0,0.0,0.0
11:23:21,636552.0,0.0,0.0
11:23:21,634594.0,0.0,0.0
11:23:21,635992.0,0.0,0.0
11:23:21,635696.0,0.0,0.0
11:23:21,634761.0,0.0,0.0
11:23:21,636523.0,0.0,0.0
11:23:21,634593.0,0.0,0.0
11:23:21,636023.0,0.0,0.0
11:23:21,635729.0,0.0,0.0
11:23:21,634784.0,0.0,0.0
11:23:21,636563.0,0.0,0.0
11:23:21,634623.0,0.0,0.0
11:23:21,636026.0,0.0,0.0
11:23:21,635679.0,0.0,0.0
11:23:21,634801.0,0.0,0.0
11:23:21,636564.0,0.0,0.0
11:23:21,634603.0,0.0,0.0
11:23:21,636029.0,0.0,0.0
11:23:21,635700.0,0.0,0.0
11:23:21,634821.0,0.0,0.0
11:23:21,636543.0,0.0,0.0
11:23:21,634593.0,0.0,0.0
11:23:21,636057.0,0.0,0.0
11:23:21,635686.0,0.0,0.0
11:23:21,634821.0,0.0,0.0
11:23:21,636594.0,0.0,0.0
11:23:21,634625.0,0.0,0.0
11:23:21,636078.0,0.0,0.0
11:23:21,635695.0,0.0,0.0
11:23:21,634837.0,0.0,0.0
11:23:21,636596.0,0.0,0.0
11:23:21,634619.0,0.0,0.0
11:23:21,636089.0,0.0,0.0
11:23:21,635724.0,0.0,0.0
11:23:21,634896.0,0.0,0.0
11:23:21,636616.0,0.0,0.0
11:23:21,634626.0,0.0,0.0
11:23:21,636105.0,0.0,0.0
11:23:21,635693.0,0.0,0.0
11:23:21,634889.0,0.0,0.0
11:23:21,636622.0,0.0,0.0
11:23:21,634663.0,0.0,0.0
11:23:21,636124.0,0.0,0.0
11:23:21,635699.0,0.0,0.0
11:23:21,634893.0,0.0,0.0
11:23:21,636618.0,0.0,0.0
11:23:21,634663.0,0.0,0.0
11:23:21,636141.0,0.0,0.0
11:23:21,635696.0,0.0,0.0
11:23:21,634941.0,0.0,0.0
11:23:21,636656.0,0.0,0.0
11:23:21,634675.0,0.0,0.0
11:23:21,636174.0,0.0,0.0
11:23:21,635690.0,0.0,0.0
11:23:21,634958.0,0.0,0.0
11:23:21,636669.0,0.0,0.0
11:23:21,634671.0,0.0,0.0
11:23:21,636227.0,0.0,0.0
11:23:21,635723.0,0.0,0.0
11:23:21,634968.0,0.0,0.0
11:23:21,636629.0,0.0,0.0
11:23:21,634684.0,0.0,0.0
11:23:21,636253.0,0.0,0.0
11:23:21,635722.0,0.0,0.0
11:23:21,634976.0,0.0,0.0
11:23:21,636636.0,0.0,0.0
11:23:21,634684.0,0.0,0.0
11:23:21,636284.0,0.0,0.0
11:23:21,635713.0,0.0,0.0
11:23:21,635008.0,0.0,0.0
11:23:21,636682.0,0.0,0.0
11:23:21,634678.0,0.0,0.0
11:23:21,636236.0,0.0,0.0
11:23:21,635685.0,0.0,0.0
11:23:21,635031.0,0.0,0.0
11:23:21,636659.0,0.0,0.0
11:23:21,634668.0,0.0,0.0
11:23:21,636239.0,0.0,0.0
11:23:21,635678.0,0.0,0.0
11:23:21,635040.0,0.0,0.0
11:23:21,636674.0,0.0,0.0
11:23:21,634679.0,0.0,0.0
11:23:21,636281.0,0.0,0.0
11:23:21,635677.0,0.0,0.0
11:23:22,635020.0,0.0,0.0
11:23:22,636648.0,0.0,0.0
11:23:22,634668.0,0.0,0.0
11:23:22,636274.0,0.0,0.0
11:23:22,635661.0,0.0,0.0
11:23:22,635029.0,0.0,0.0
11:23:22,636623.0,0.0,0.0
11:23:22,634666.0,0.0,0.0
11:23:22,636244.0,0.0,0.0
11:23:22,635626.0,0.0,0.0
11:23:22,635018.0,0.0,0.0
11:23:22,636604.0,0.0,0.0
11:23:22,634611.0,0.0,0.0
11:23:22,636181.0,0.0,0.0
11:23:22,635599.0,0.0,0.0
11:23:22,635035.0,0.0,0.0
11:23:22,636588.0,0.0,0.0
11:23:22,634657.0,0.0,0.0
11:23:22,636233.0,0.0,0.0
11:23:22,635589.0,0.0,0.0
11:23:22,635034.0,0.0,0.0
11:23:22,636550.0,0.0,0.0
11:23:22,634647.0,0.0,0.0
11:23:22,636218.0,0.0,0.0
11:23:22,635576.0,0.0,0.0
11:23:22,635042.0,0.0,0.0
11:23:22,636558.0,0.0,0.0
11:23:22,634614.0,0.0,0.0
11:23:22,636237.0,0.0,0.0
11:23:22,635553.0,0.0,0.0
11:23:22,635006.0,0.0,0.0
11:23:22,636512.0,0.0,0.0
11:23:22,634531.0,0.0,0.0
11:23:22,636125.0,0.0,0.0
11:23:22,635395.0,0.0,0.0
11:23:22,634989.0,0.0,0.0
11:23:22,636570.0,0.0,0.0
11:23:22,634580.0,0.0,0.0
11:23:22,636200.0,0.0,0.0
11:23:22,635436.0,0.0,0.0
11:23:22,634949.0,0.0,0.0
11:23:22,636475.0,0.0,0.0
11:23:22,634515.0,0.0,0.0
11:23:22,636173.0,0.0,0.0
11:23:22,635404.0,0.0,0.0
11:23:22,634933.0,0.0,0.0
11:23:22,636405.0,0.0,0.0
11:23:22,634454.0,0.0,0.0
11:23:22,636144.0,0.0,0.0
11:23:22,635367.0,0.0,0.0
11:23:22,634936.0,0.0,0.0
11:23:22,636405.0,0.0,0.0
11:23:22,634413.0,0.0,0.0
11:23:22,636089.0,0.0,0.0
11:23:22,635284.0,0.0,0.0
11:23:22,634837.0,0.0,0.0
11:23:22,636303.0,0.0,0.0
11:23:22,634340.0,0.0,0.0
11:23:22,636002.0,0.0,0.0
11:23:22,635211.0,0.0,0.0
11:23:22,634804.0,0.0,0.0
11:23:22,636241.0,0.0,0.0
11:23:22,634268.0,0.0,0.0
11:23:22,635969.0,0.0,0.0
11:23:22,635165.0,0.0,0.0
11:23:22,634761.0,0.0,0.0
11:23:22,636192.0,0.0,0.0
11:23:22,634233.0,0.0,0.0
11:23:22,635938.0,0.0,0.0
11:23:22,635099.0,0.0,0.0
11:23:22,634711.0,0.0,0.0
11:23:22,636133.0,0.0,0.0
11:23:22,634179.0,0.0,0.0
11:23:22,635911.0,0.0,0.0
11:23:22,635068.0,0.0,0.0
11:23:22,634741.0,0.0,0.0
11:23:22,636144.0,0.0,0.0
11:23:22,634188.0,0.0,0.0
11:23:22,635898.0,0.0,0.0
11:23:22,635038.0,0.0,0.0
11:23:22,634714.0,0.0,0.0
11:23:22,636124.0,0.0,0.0
11:23:22,634171.0,0.0,0.0
11:23:22,635884.0,0.0,0.0
11:23:22,635013.0,0.0,0.0
11:23:22,634703.0,0.0,0.0
11:23:22,636075.0,0.0,0.0
11:23:22,634114.0,0.0,0.0
11:23:22,635859.0,0.0,0.0
11:23:22,634965.0,0.0,0.0
11:23:22,634693.0,0.0,0.0
11:23:22,636074.0,0.0,0.0
11:23:22,634148.0,0.0,0.0
11:23:22,635880.0,0.0,0.0
11:23:22,634970.0,0.0,0.0
11:23:22,634675.0,0.0,0.0
11:23:22,636011.0,0.0,0.0
11:23:22,634080.0,0.0,0.0
11:23:22,635878.0,0.0,0.0
11:23:22,634948.0,0.0,0.0
11:23:22,634659.0,0.0,0.0
11:23:22,636008.0,0.0,0.0
11:23:22,634099.0,0.0,0.0
11:23:22,635852.0,0.0,0.0
11:23:22,634918.0,0.0,0.0
11:23:22,634659.0,0.0,0.0
11:23:22,636003.0,0.0,0.0
11:23:22,634054.0,0.0,0.0
11:23:22,635839.0,0.0,0.0
11:23:22,634875.0,0.0,0.0
11:23:22,634644.0,0.0,0.0
11:23:22,635943.0,0.0,0.0
11:23:22,634039.0,0.0,0.0
11:23:22,635841.0,0.0,0.0
11:23:22,634851.0,0.0,0.0
11:23:22,634633.0,0.0,0.0
11:23:22,635955.0,0.0,0.0
11:23:22,634056.0,0.0,0.0
11:23:22,635851.0,0.0,0.0
11:23:22,634861.0,0.0,0.0
11:23:22,634641.0,0.0,0.0
11:23:22,635914.0,0.0,0.0
11:23:22,634001.0,0.0,0.0
11:23:22,635784.0,0.0,0.0
11:23:22,634773.0,0.0,0.0
11:23:23,634611.0,0.0,0.0
11:23:23,635907.0,0.0,0.0
11:23:23,634004.0,0.0,0.0
11:23:23,635839.0,0.0,0.0
11:23:23,634815.0,0.0,0.0
11:23:23,634636.0,0.0,0.0
11:23:23,635898.0,0.0,0.0
11:23:23,633978.0,0.0,0.0
11:23:23,635766.0,0.0,0.0
11:23:23,634741.0,0.0,0.0
11:23:23,634610.0,0.0,0.0
11:23:23,635885.0,0.0,0.0
11:23:23,633986.0,0.0,0.0
11:23:23,635791.0,0.0,0.0
11:23:23,634744.0,0.0,0.0
11:23:23,634607.0,0.0,0.0
11:23:23,635857.0,0.0,0.0
11:23:23,633951.0,0.0,0.0
11:23:23,635785.0,0.0,0.0
11:23:23,634738.0,0.0,0.0
11:23:23,634627.0,0.0,0.0
11:23:23,635852.0,0.0,0.0
11:23:23,633951.0,0.0,0.0
11:23:23,635818.0,0.0,0.0
11:23:23,634704.0,0.0,0.0
11:23:23,634626.0,0.0,0.0
11:23:23,635859.0,0.0,0.0
11:23:23,633943.0,0.0,0.0
11:23:23,635809.0,0.0,0.0
11:23:23,634723.0,0.0,0.0
11:23:23,634674.0,0.0,0.0
11:23:23,635876.0,0.0,0.0
11:23:23,633947.0,0.0,0.0
11:23:23,635803.0,0.0,0.0
11:23:23,634682.0,0.0,0.0
11:23:23,634654.0,0.0,0.0
11:23:23,635823.0,0.0,0.0
11:23:23,633909.0,0.0,0.0
11:23:23,635779.0,0.0,0.0
11:23:23,634641.0,0.0,0.0
11:23:23,634593.0,0.0,0.0
11:23:23,635751.0,0.0,0.0
11:23:23,633905.0,0.0,0.0
11:23:23,635776.0,0.0,0.0
11:23:23,634627.0,0.0,0.0
11:23:23,634629.0,0.0,0.0
11:23:23,635812.0,0.0,0.0
11:23:23,633934.0,0.0,0.0
11:23:23,635813.0,0.0,0.0
11:23:23,634639.0,0.0,0.0
11:23:23,634655.0,0.0,0.0
11:23:23,635839.0,0.0,0.0
11:23:23,633958.0,0.0,0.0
11:23:23,635804.0,0.0,0.0
11:23:23,634622.0,0.0,0.0
11:23:23,634673.0,0.0,0.0
11:23:23,635807.0,0.0,0.0
11:23:23,633969.0,0.0,0.0
11:23:23,635863.0,0.0,0.0
11:23:23,634619.0,0.0,0.0
11:23:23,634656.0,0.0,0.0
11:23:23,635774.0,0.0,0.0
11:23:23,633903.0,0.0,0.0
11:23:23,635786.0,0.0,0.0
11:23:23,634518.0,0.0,0.0
11:23:23,634577.0,0.0,0.0
11:23:23,635710.0,0.0,0.0
11:23:23,633938.0,0.0,0.0
11:23:23,635902.0,0.0,0.0
11:23:23,634651.0,0.0,0.0
11:23:23,634688.0,0.0,0.0
11:23:23,635744.0,0.0,0.0
11:23:23,633918.0,0.0,0.0
11:23:23,635839.0,0.0,0.0
11:23:23,634583.0,0.0,0.0
11:23:23,634669.0,0.0,0.0
11:23:23,635755.0,0.0,0.0
11:23:23,633941.0,0.0,0.0
11:23:23,635819.0,0.0,0.0
11:23:23,634570.0,0.0,0.0
11:23:23,634671.0,0.0,0.0
11:23:23,635731.0,0.0,0.0
11:23:23,633893.0,0.0,0.0
11:23:23,635835.0,0.0,0.0
11:23:23,634540.0,0.0,0.0
11:23:23,634651.0,0.0,0.0
11:23:23,635714.0,0.0,0.0
11:23:23,633864.0,0.0,0.0
11:23:23,635777.0,0.0,0.0
11:23:23,634464.0,0.0,0.0
11:23:23,634620.0,0.0,0.0
11:23:23,635666.0,0.0,0.0
11:23:23,633834.0,0.0,0.0
11:23:23,635743.0,0.0,0.0
11:23:23,634401.0,0.0,0.0
11:23:23,634596.0,0.0,0.0
11:23:23,635606.0,0.0,0.0
11:23:23,633768.0,0.0,0.0
11:23:23,635713.0,0.0,0.0
11:23:23,634399.0,0.0,0.0
11:23:23,634557.0,0.0,0.0
11:23:23,635570.0,0.0,0.0
11:23:23,633739.0,0.0,0.0
11:23:23,635683.0,0.0,0.0
11:23:23,634359.0,0.0,0.0
11:23:23,634571.0,0.0,0.0
11:23:23,635564.0,0.0,0.0
11:23:23,633774.0,0.0,0.0
11:23:23,635707.0,0.0,0.0
11:23:23,634373.0,0.0,0.0
11:23:23,634587.0,0.0,0.0
11:23:23,635562.0,0.0,0.0
11:23:23,633749.0,0.0,0.0
11:23:23,635701.0,0.0,0.0
11:23:23,634341.0,0.0,0.0
11:23:23,634601.0,0.0,0.0
11:23:23,635561.0,0.0,0.0
11:23:23,633777.0,0.0,0.0
11:23:23,635714.0,0.0,0.0
11:23:23,634342.0,0.0,0.0
11:23:23,634634.0,0.0,0.0
11:23:23,635604.0,0.0,0.0
11:23:23,633778.0,0.0,0.0
11:23:23,635696.0,0.0,0.0
11:23:23,634338.0,0.0,0.0
11:23:24,634623.0,0.0,0.0
11:23:24,635551.0,0.0,0.0
11:23:24,633762.0,0.0,0.0
11:23:24,635726.0,0.0,0.0
11:23:24,634338.0,0.0,0.0
11:23:24,634641.0,0.0,0.0
11:23:24,635552.0,0.0,0.0
11:23:24,633762.0,0.0,0.0
11:23:24,635729.0,0.0,0.0
11:23:24,634331.0,0.0,0.0
11:23:24,634614.0,0.0,0.0
11:23:24,635479.0,0.0,0.0
11:23:24,633723.0,0.0,0.0
11:23:24,635722.0,0.0,0.0
11:23:24,634309.0,0.0,0.0
11:23:24,634627.0,0.0,0.0
11:23:24,635510.0,0.0,0.0
11:23:24,633748.0,0.0,0.0
11:23:24,635728.0,0.0,0.0
11:23:24,634309.0,0.0,0.0
11:23:24,634648.0,0.0,0.0
11:23:24,635482.0,0.0,0.0
11:23:24,633731.0,0.0,0.0
11:23:24,635713.0,0.0,0.0
11:23:24,634301.0,0.0,0.0
11:23:24,634656.0,0.0,0.0
11:23:24,635459.0,0.0,0.0
11:23:24,633760.0,0.0,0.0
11:23:24,635767.0,0.0,0.0
11:23:24,634290.0,0.0,0.0
11:23:24,634677.0,0.0,0.0
11:23:24,635478.0,0.0,0.0
11:23:24,633756.0,0.0,0.0
11:23:24,635769.0,0.0,0.0
11:23:24,634290.0,0.0,0.0
11:23:24,634736.0,0.0,0.0
11:23:24,635534.0,0.0,0.0
11:23:24,633827.0,0.0,0.0
11:23:24,635823.0,0.0,0.0
11:23:24,634325.0,0.0,0.0
11:23:24,634746.0,0.0,0.0
11:23:24,635536.0,0.0,0.0
11:23:24,633819.0,0.0,0.0
11:23:24,635803.0,0.0,0.0
11:23:24,634319.0,0.0,0.0
11:23:24,634766.0,0.0,0.0
11:23:24,635536.0,0.0,0.0
11:23:24,633844.0,0.0,0.0
11:23:24,635809.0,0.0,0.0
11:23:24,634308.0,0.0,0.0
11:23:24,634794.0,0.0,0.0
11:23:24,635577.0,0.0,0.0
11:23:24,633924.0,0.0,0.0
11:23:24,635870.0,0.0,0.0
11:23:24,634323.0,0.0,0.0
11:23:24,634798.0,0.0,0.0
11:23:24,635548.0,0.0,0.0
11:23:24,633903.0,0.0,0.0
11:23:24,635887.0,0.0,0.0
11:23:24,634340.0,0.0,0.0
11:23:24,634826.0,0.0,0.0
11:23:24,635533.0,0.0,0.0
11:23:24,633883.0,0.0,0.0
11:23:24,635868.0,0.0,0.0
11:23:24,634358.0,0.0,0.0
11:23:24,634876.0,0.0,0.0
11:23:24,635558.0,0.0,0.0
11:23:24,633910.0,0.0,0.0
11:23:24,635913.0,0.0,0.0
11:23:24,634369.0,0.0,0.0
11:23:24,634906.0,0.0,0.0
11:23:24,635573.0,0.0,0.0
11:23:24,633929.0,0.0,0.0
11:23:24,635899.0,0.0,0.0
11:23:24,634361.0,0.0,0.0
11:23:24,634927.0,0.0,0.0
11:23:24,635606.0,0.0,0.0
11:23:24,633969.0,0.0,0.0
11:23:24,635929.0,0.0,0.0
11:23:24,634370.0,0.0,0.0
11:23:24,634933.0,0.0,0.0
11:23:24,635598.0,0.0,0.0
11:23:24,633983.0,0.0,0.0
11:23:24,635973.0,0.0,0.0
11:23:24,634371.0,0.0,0.0
11:23:24,634938.0,0.0,0.0
11:23:24,635582.0,0.0,0.0
11:23:24,633982.0,0.0,0.0
11:23:24,635980.0,0.0,0.0
11:23:24,634394.0,0.0,0.0
11:23:24,634996.0,0.0,0.0
11:23:24,635619.0,0.0,0.0
11:23:24,633984.0,0.0,0.0
11:23:24,635977.0,0.0,0.0
11:23:24,634396.0,0.0,0.0
11:23:24,634996.0,0.0,0.0
11:23:24,635589.0,0.0,0.0
11:23:24,634002.0,0.0,0.0
11:23:24,635963.0,0.0,0.0
11:23:24,634353.0,0.0,0.0
11:23:24,634958.0,0.0,0.0
11:23:24,635600.0,0.0,0.0
11:23:24,634093.0,0.0,0.0
11:23:24,636061.0,0.0,0.0
11:23:24,634417.0,0.0,0.0
11:23:24,635060.0,0.0,0.0
11:23:24,635601.0,0.0,0.0
11:23:24,634038.0,0.0,0.0
11:23:24,636010.0,0.0,0.0
11:23:24,634383.0,0.0,0.0
11:23:24,635069.0,0.0,0.0
11:23:24,635631.0,0.0,0.0
11:23:24,634068.0,0.0,0.0
11:23:24,636068.0,0.0,0.0
11:23:24,634414.0,0.0,0.0
11:23:24,635108.0,0.0,0.0
11:23:24,635604.0,0.0,0.0
11:23:24,634053.0,0.0,0.0
11:23:24,636013.0,0.0,0.0
11:23:24,634371.0,0.0,0.0
11:23:24,635048.0,0.0,0.0
11:23:24,635566.0,0.0,0.0
11:23:24,634056.0,0.0,0.0
11:23:24,636007.0,0.0,0.0
11:23:24,634293.0,0.0,0.0
11:23:25,635033.0,0.0,0.0
11:23:25,635528.0,0.0,0.0
11:23:25,634014.0,0.0,0.0
11:23:25,635981.0,0.0,0.0
11:23:25,634273.0,0.0,0.0
11:23:25,635023.0,0.0,0.0
11:23:25,635480.0,0.0,0.0
11:23:25,633976.0,0.0,0.0
11:23:25,635951.0,0.0,0.0
11:23:25,634255.0,0.0,0.0
11:23:25,634984.0,0.0,0.0
11:23:25,635453.0,0.0,0.0
11:23:25,633970.0,0.0,0.0
11:23:25,635968.0,0.0,0.0
11:23:25,634272.0,0.0,0.0
11:23:25,635024.0,0.0,0.0
11:23:25,635473.0,0.0,0.0
11:23:25,634013.0,0.0,0.0
11:23:25,635988.0,0.0,0.0
11:23:25,634304.0,0.0,0.0
11:23:25,635078.0,0.0,0.0
11:23:25,635507.0,0.0,0.0
11:23:25,634039.0,0.0,0.0
11:23:25,635999.0,0.0,0.0
11:23:25,634292.0,0.0,0.0
11:23:25,635079.0,0.0,0.0
11:23:25,635491.0,0.0,0.0
11:23:25,634013.0,0.0,0.0
11:23:25,636002.0,0.0,0.0
11:23:25,634296.0,0.0,0.0
11:23:25,635106.0,0.0,0.0
11:23:25,635503.0,0.0,0.0
11:23:25,634068.0,0.0,0.0
11:23:25,636021.0,0.0,0.0
11:23:25,634318.0,0.0,0.0
11:23:25,635142.0,0.0,0.0
11:23:25,635520.0,0.0,0.0
11:23:25,634090.0,0.0,0.0
11:23:25,636094.0,0.0,0.0
11:23:25,634363.0,0.0,0.0
11:23:25,635196.0,0.0,0.0
11:23:25,635545.0,0.0,0.0
11:23:25,634154.0,0.0,0.0
11:23:25,636076.0,0.0,0.0
11:23:25,634336.0,0.0,0.0
11:23:25,635180.0,0.0,0.0
11:23:25,635511.0,0.0,0.0
11:23:25,634127.0,0.0,0.0
11:23:25,636080.0,0.0,0.0
11:23:25,634361.0,0.0,0.0
11:23:25,635250.0,0.0,0.0
11:23:25,635547.0,0.0,0.0
11:23:25,634176.0,0.0,0.0
11:23:25,636128.0,0.0,0.0
11:23:25,634383.0,0.0,0.0
11:23:25,635274.0,0.0,0.0
11:23:25,635553.0,0.0,0.0
11:23:25,634190.0,0.0,0.0
11:23:25,636146.0,0.0,0.0
11:23:25,634383.0,0.0,0.0
11:23:25,635299.0,0.0,0.0
11:23:25,635588.0,0.0,0.0
11:23:25,634209.0,0.0,0.0
11:23:25,636136.0,0.0,0.0
11:23:25,634388.0,0.0,0.0
11:23:25,635315.0,0.0,0.0
11:23:25,635560.0,0.0,0.0
11:23:25,634234.0,0.0,0.0
11:23:25,636180.0,0.0,0.0
11:23:25,634403.0,0.0,0.0
11:23:25,635334.0,0.0,0.0
11:23:25,635576.0,0.0,0.0
11:23:25,634222.0,0.0,0.0
11:23:25,636144.0,0.0,0.0
11:23:25,634393.0,0.0,0.0
11:23:25,635343.0,0.0,0.0
11:23:25,635579.0,0.0,0.0
11:23:25,634269.0,0.0,0.0
11:23:25,636191.0,0.0,0.0
11:23:25,634392.0,0.0,0.0
11:23:25,635356.0,0.0,0.0
11:23:25,635611.0,0.0,0.0
11:23:25,634300.0,0.0,0.0
11:23:25,636210.0,0.0,0.0
11:23:25,634402.0,0.0,0.0
11:23:25,635387.0,0.0,0.0
11:23:25,635588.0,0.0,0.0
11:23:25,634269.0,0.0,0.0
11:23:25,636174.0,0.0,0.0
11:23:25,634386.0,0.0,0.0
11:23:25,635399.0,0.0,0.0
11:23:25,635572.0,0.0,0.0
11:23:25,634286.0,0.0,0.0
11:23:25,636216.0,0.0,0.0
11:23:25,634419.0,0.0,0.0
11:23:25,635413.0,0.0,0.0
11:23:25,635574.0,0.0,0.0
11:23:25,634288.0,0.0,0.0
11:23:25,636199.0,0.0,0.0
11:23:25,634376.0,0.0,0.0
11:23:25,635399.0,0.0,0.0
11:23:25,635599.0,0.0,0.0
11:23:25,634317.0,0.0,0.0
11:23:25,636256.0,0.0,0.0
11:23:25,634399.0,0.0,0.0
11:23:25,635412.0,0.0,0.0
11:23:25,635572.0,0.0,0.0
11:23:25,634323.0,0.0,0.0
11:23:25,636236.0,0.0,0.0
11:23:25,634416.0,0.0,0.0
11:23:25,635466.0,0.0,0.0
11:23:25,635581.0,0.0,0.0
11:23:25,634362.0,0.0,0.0
11:23:25,636239.0,0.0,0.0
11:23:25,634391.0,0.0,0.0
11:23:25,635448.0,0.0,0.0
11:23:25,635544.0,0.0,0.0
11:23:25,634313.0,0.0,0.0
11:23:25,636220.0,0.0,0.0
11:23:25,634385.0,0.0,0.0
11:23:25,635439.0,0.0,0.0
11:23:25,635529.0,0.0,0.0
11:23:25,634311.0,0.0,0.0
11:23:25,636209.0,0.0,0.0
11:23:26,634321.0,0.0,0.0
11:23:26,635417.0,0.0,0.0
11:23:26,635451.0,0.0,0.0
11:23:26,634218.0,0.0,0.0
11:23:26,636179.0,0.0,0.0
11:23:26,634399.0,0.0,0.0
11:23:26,635489.0,0.0,0.0
11:23:26,635487.0,0.0,0.0
11:23:26,634272.0,0.0,0.0
11:23:26,636139.0,0.0,0.0
11:23:26,634285.0,0.0,0.0
11:23:26,635358.0,0.0,0.0
11:23:26,635379.0,0.0,0.0
11:23:26,634239.0,0.0,0.0
11:23:26,636087.0,0.0,0.0
11:23:26,634259.0,0.0,0.0
11:23:26,635376.0,0.0,0.0
11:23:26,635393.0,0.0,0.0
11:23:26,634254.0,0.0,0.0
11:23:26,636055.0,0.0,0.0
11:23:26,634226.0,0.0,0.0
11:23:26,635311.0,0.0,0.0
11:23:26,635261.0,0.0,0.0
11:23:26,634141.0,0.0,0.0
11:23:26,635939.0,0.0,0.0
11:23:26,634107.0,0.0,0.0
11:23:26,635256.0,0.0,0.0
11:23:26,635230.0,0.0,0.0
11:23:26,634107.0,0.0,0.0
11:23:26,635919.0,0.0,0.0
11:23:26,634058.0,0.0,0.0
11:23:26,635215.0,0.0,0.0
11:23:26,635161.0,0.0,0.0
11:23:26,634049.0,0.0,0.0
11:23:26,635869.0,0.0,0.0
11:23:26,633997.0,0.0,0.0
11:23:26,635143.0,0.0,0.0
11:23:26,635093.0,0.0,0.0
11:23:26,634011.0,0.0,0.0
11:23:26,635856.0,0.0,0.0
11:23:26,633978.0,0.0,0.0
11:23:26,635192.0,0.0,0.0
11:23:26,635109.0,0.0,0.0
11:23:26,634039.0,0.0,0.0
11:23:26,635871.0,0.0,0.0
11:23:26,633984.0,0.0,0.0
11:23:26,635193.0,0.0,0.0
11:23:26,635089.0,0.0,0.0
11:23:26,634033.0,0.0,0.0
11:23:26,635844.0,0.0,0.0
11:23:26,633953.0,0.0,0.0
11:23:26,635196.0,0.0,0.0
11:23:26,635088.0,0.0,0.0
11:23:26,634010.0,0.0,0.0
11:23:26,635831.0,0.0,0.0
11:23:26,633935.0,0.0,0.0
11:23:26,635156.0,0.0,0.0
11:23:26,635020.0,0.0,0.0
11:23:26,633997.0,0.0,0.0
11:23:26,635814.0,0.0,0.0
11:23:26,633900.0,0.0,0.0
11:23:26,635156.0,0.0,0.0
11:23:26,635006.0,0.0,0.0
11:23:26,633980.0,0.0,0.0
11:23:26,635793.0,0.0,0.0
11:23:26,633873.0,0.0,0.0
11:23:26,635129.0,0.0,0.0
11:23:26,634966.0,0.0,0.0
11:23:26,633951.0,0.0,0.0
11:23:26,635785.0,0.0,0.0
11:23:26,633851.0,0.0,0.0
11:23:26,635158.0,0.0,0.0
11:23:26,634969.0,0.0,0.0
11:23:26,633955.0,0.0,0.0
11:23:26,635761.0,0.0,0.0
11:23:26,633828.0,0.0,0.0
11:23:26,635112.0,0.0,0.0
11:23:26,634928.0,0.0,0.0
11:23:26,633959.0,0.0,0.0
11:23:26,635749.0,0.0,0.0
11:23:26,633819.0,0.0,0.0
11:23:26,635099.0,0.0,0.0
11:23:26,634871.0,0.0,0.0
11:23:26,633910.0,0.0,0.0
11:23:26,635726.0,0.0,0.0
11:23:26,633803.0,0.0,0.0
11:23:26,635118.0,0.0,0.0
11:23:26,634871.0,0.0,0.0
11:23:26,633924.0,0.0,0.0
11:23:26,635697.0,0.0,0.0
11:23:26,633759.0,0.0,0.0
11:23:26,635124.0,0.0,0.0
11:23:26,634864.0,0.0,0.0
11:23:26,633914.0,0.0,0.0
11:23:26,635677.0,0.0,0.0
11:23:26,633736.0,0.0,0.0
11:23:26,635101.0,0.0,0.0
11:23:26,634846.0,0.0,0.0
11:23:26,633917.0,0.0,0.0
11:23:26,635726.0,0.0,0.0
11:23:26,633755.0,0.0,0.0
11:23:26,635102.0,0.0,0.0
11:23:26,634862.0,0.0,0.0
11:23:26,633939.0,0.0,0.0
11:23:26,635681.0,0.0,0.0
11:23:26,633756.0,0.0,0.0
11:23:26,635166.0,0.0,0.0
11:23:26,634844.0,0.0,0.0
11:23:26,633937.0,0.0,0.0
11:23:26,635707.0,0.0,0.0
11:23:26,633773.0,0.0,0.0
11:23:26,635160.0,0.0,0.0
11:23:26,634819.0,0.0,0.0
11:23:26,633914.0,0.0,0.0
11:23:26,635684.0,0.0,0.0
11:23:26,633744.0,0.0,0.0
11:23:26,635148.0,0.0,0.0
11:23:26,634818.0,0.0,0.0
11:23:26,633937.0,0.0,0.0
11:23:26,635671.0,0.0,0.0
11:23:26,633729.0,0.0,0.0
11:23:26,635141.0,0.0,0.0
11:23:26,634764.0,0.0,0.0
11:23:26,633926.0,0.0,0.0
11:23:26,635694.0,0.0,0.0
11:23:27,633754.0,0.0,0.0
11:23:27,635151.0,0.0,0.0
11:23:27,634712.0,0.0,0.0
11:23:27,633920.0,0.0,0.0
11:23:27,635674.0,0.0,0.0
11:23:27,633713.0,0.0,0.0
11:23:27,635128.0,0.0,0.0
11:23:27,634754.0,0.0,0.0
11:23:27,633977.0,0.0,0.0
11:23:27,635671.0,0.0,0.0
11:23:27,633719.0,0.0,0.0
11:23:27,635173.0,0.0,0.0
11:23:27,634773.0,0.0,0.0
11:23:27,633964.0,0.0,0.0
11:23:27,635663.0,0.0,0.0
11:23:27,633728.0,0.0,0.0
11:23:27,635190.0,0.0,0.0
11:23:27,634746.0,0.0,0.0
11:23:27,633971.0,0.0,0.0
11:23:27,635659.0,0.0,0.0
11:23:27,633708.0,0.0,0.0
11:23:27,635154.0,0.0,0.0
11:23:27,634699.0,0.0,0.0
11:23:27,633944.0,0.0,0.0
11:23:27,635634.0,0.0,0.0
11:23:27,633676.0,0.0,0.0
11:23:27,635174.0,0.0,0.0
11:23:27,634674.0,0.0,0.0
11:23:27,633931.0,0.0,0.0
11:23:27,635597.0,0.0,0.0
11:23:27,633645.0,0.0,0.0
11:23:27,635152.0,0.0,0.0
11:23:27,634649.0,0.0,0.0
11:23:27,633911.0,0.0,0.0
11:23:27,635589.0,0.0,0.0
11:23:27,633604.0,0.0,0.0
11:23:27,635099.0,0.0,0.0
11:23:27,634593.0,0.0,0.0
11:23:27,633960.0,0.0,0.0
11:23:27,635705.0,0.0,0.0
11:23:27,633680.0,0.0,0.0
11:23:27,635173.0,0.0,0.0
11:23:27,634645.0,0.0,0.0
11:23:27,633946.0,0.0,0.0
11:23:27,635598.0,0.0,0.0
11:23:27,633643.0,0.0,0.0
11:23:27,635198.0,0.0,0.0
11:23:27,634648.0,0.0,0.0
11:23:27,633938.0,0.0,0.0
11:23:27,635575.0,0.0,0.0
11:23:27,633605.0,0.0,0.0
11:23:27,635164.0,0.0,0.0
11:23:27,634592.0,0.0,0.0
11:23:27,633927.0,0.0,0.0
11:23:27,635556.0,0.0,0.0
11:23:27,633564.0,0.0,0.0
11:23:27,635126.0,0.0,0.0
11:23:27,634541.0,0.0,0.0
11:23:27,633839.0,0.0,0.0
11:23:27,635486.0,0.0,0.0
11:23:27,633508.0,0.0,0.0
11:23:27,635084.0,0.0,0.0
11:23:27,634472.0,0.0,0.0
11:23:27,633831.0,0.0,0.0
11:23:27,635466.0,0.0,0.0
11:23:27,633484.0,0.0,0.0
11:23:27,635043.0,0.0,0.0
11:23:27,634441.0,0.0,0.0
11:23:27,633777.0,0.0,0.0
11:23:27,635399.0,0.0,0.0
11:23:27,633421.0,0.0,0.0
11:23:27,635009.0,0.0,0.0
11:23:27,634393.0,0.0,0.0
11:23:27,633782.0,0.0,0.0
11:23:27,635377.0,0.0,0.0
11:23:27,633393.0,0.0,0.0
11:23:27,635023.0,0.0,0.0
11:23:27,634384.0,0.0,0.0
11:23:27,633782.0,0.0,0.0
11:23:27,635360.0,0.0,0.0
11:23:27,633386.0,0.0,0.0
11:23:27,635025.0,0.0,0.0
11:23:27,634383.0,0.0,0.0
11:23:27,633794.0,0.0,0.0
11:23:27,635347.0,0.0,0.0
11:23:27,633350.0,0.0,0.0
11:23:27,634976.0,0.0,0.0
11:23:27,634326.0,0.0,0.0
11:23:27,633777.0,0.0,0.0
11:23:27,635345.0,0.0,0.0
11:23:27,633373.0,0.0,0.0
11:23:27,635031.0,0.0,0.0
11:23:27,634339.0,0.0,0.0
11:23:27,633767.0,0.0,0.0
11:23:27,635354.0,0.0,0.0
11:23:27,633368.0,0.0,0.0
11:23:27,635005.0,0.0,0.0
11:23:27,634317.0,0.0,0.0
11:23:27,633789.0,0.0,0.0
11:23:27,635343.0,0.0,0.0
11:23:27,633367.0,0.0,0.0
11:23:27,635046.0,0.0,0.0
11:23:27,634319.0,0.0,0.0
11:23:27,633778.0,0.0,0.0
11:23:27,635314.0,0.0,0.0
11:23:27,633353.0,0.0,0.0
11:23:27,635034.0,0.0,0.0
11:23:27,634304.0,0.0,0.0
11:23:27,633778.0,0.0,0.0
11:23:27,635314.0,0.0,0.0
11:23:27,633329.0,0.0,0.0
11:23:27,635018.0,0.0,0.0
11:23:27,634288.0,0.0,0.0
11:23:27,633796.0,0.0,0.0
11:23:27,635291.0,0.0,0.0
11:23:27,633341.0,0.0,0.0
11:23:27,635036.0,0.0,0.0
11:23:27,634301.0,0.0,0.0
11:23:27,633816.0,0.0,0.0
11:23:27,635349.0,0.0,0.0
11:23:27,633376.0,0.0,0.0
11:23:27,635073.0,0.0,0.0
11:23:27,634279.0,0.0,0.0
11:23:27,633856.0,0.0,0.0
11:23:27,635351.0,0.0,0.0
11:23:27,633344.0,0.0,0.0
11:23:28,635049.0,0.0,0.0
11:23:28,634254.0,0.0,0.0
11:23:28,633825.0,0.0,0.0
11:23:28,635317.0,0.0,0.0
11:23:28,633346.0,0.0,0.0
11:23:28,635067.0,0.0,0.0
11:23:28,634246.0,0.0,0.0
11:23:28,633826.0,0.0,0.0
11:23:28,635303.0,0.0,0.0
11:23:28,633341.0,0.0,0.0
11:23:28,635071.0,0.0,0.0
11:23:28,634243.0,0.0,0.0
11:23:28,633869.0,0.0,0.0
11:23:28,635359.0,0.0,0.0
11:23:28,633359.0,0.0,0.0
11:23:28,635091.0,0.0,0.0
11:23:28,634283.0,0.0,0.0
11:23:28,633899.0,0.0,0.0
11:23:28,635343.0,0.0,0.0
11:23:28,633369.0,0.0,0.0
11:23:28,635111.0,0.0,0.0
11:23:28,634270.0,0.0,0.0
11:23:28,633928.0,0.0,0.0
11:23:28,635370.0,0.0,0.0
11:23:28,633402.0,0.0,0.0
11:23:28,635173.0,0.0,0.0
11:23:28,634318.0,0.0,0.0
11:23:28,633945.0,0.0,0.0
11:23:28,635377.0,0.0,0.0
11:23:28,633394.0,0.0,0.0
11:23:28,635159.0,0.0,0.0
11:23:28,634316.0,0.0,0.0
11:23:28,633952.0,0.0,0.0
11:23:28,635374.0,0.0,0.0
11:23:28,633438.0,0.0,0.0
11:23:28,635185.0,0.0,0.0
11:23:28,634303.0,0.0,0.0
11:23:28,633979.0,0.0,0.0
11:23:28,635404.0,0.0,0.0
11:23:28,633434.0,0.0,0.0
11:23:28,635226.0,0.0,0.0
11:23:28,634334.0,0.0,0.0
11:23:28,633994.0,0.0,0.0
11:23:28,635426.0,0.0,0.0
11:23:28,633457.0,0.0,0.0
11:23:28,635227.0,0.0,0.0
11:23:28,634293.0,0.0,0.0
11:23:28,634004.0,0.0,0.0
11:23:28,635425.0,0.0,0.0
11:23:28,633444.0,0.0,0.0
11:23:28,635238.0,0.0,0.0
11:23:28,634328.0,0.0,0.0
11:23:28,634041.0,0.0,0.0
11:23:28,635445.0,0.0,0.0
11:23:28,633501.0,0.0,0.0
11:23:28,635277.0,0.0,0.0
11:23:28,634337.0,0.0,0.0
11:23:28,634072.0,0.0,0.0
11:23:28,635478.0,0.0,0.0
11:23:28,633529.0,0.0,0.0
11:23:28,635318.0,0.0,0.0
11:23:28,634343.0,0.0,0.0
11:23:28,634109.0,0.0,0.0
11:23:28,635475.0,0.0,0.0
11:23:28,633539.0,0.0,0.0
11:23:28,635333.0,0.0,0.0
11:23:28,634355.0,0.0,0.0
11:23:28,634109.0,0.0,0.0
11:23:28,635436.0,0.0,0.0
11:23:28,633471.0,0.0,0.0
11:23:28,635368.0,0.0,0.0
11:23:28,634491.0,0.0,0.0
11:23:28,634296.0,0.0,0.0
11:23:28,635556.0,0.0,0.0
11:23:28,633548.0,0.0,0.0
11:23:28,635366.0,0.0,0.0
11:23:28,634374.0,0.0,0.0
11:23:28,634182.0,0.0,0.0
11:23:28,635546.0,0.0,0.0
11:23:28,633592.0,0.0,0.0
11:23:28,635398.0,0.0,0.0
11:23:28,634369.0,0.0,0.0
11:23:28,634205.0,0.0,0.0
11:23:28,635522.0,0.0,0.0
11:23:28,633607.0,0.0,0.0
11:23:28,635429.0,0.0,0.0
11:23:28,634376.0,0.0,0.0
11:23:28,634206.0,0.0,0.0
11:23:28,635472.0,0.0,0.0
11:23:28,633537.0,0.0,0.0
11:23:28,635403.0,0.0,0.0
11:23:28,634349.0,0.0,0.0
11:23:28,634205.0,0.0,0.0
11:23:28,635444.0,0.0,0.0
11:23:28,633531.0,0.0,0.0
11:23:28,635364.0,0.0,0.0
11:23:28,634289.0,0.0,0.0
11:23:28,634186.0,0.0,0.0
11:23:28,635410.0,0.0,0.0
11:23:28,633495.0,0.0,0.0
11:23:28,635357.0,0.0,0.0
11:23:28,634271.0,0.0,0.0
11:23:28,634188.0,0.0,0.0
11:23:28,635397.0,0.0,0.0
11:23:28,633459.0,0.0,0.0
11:23:28,635343.0,0.0,0.0
11:23:28,634261.0,0.0,0.0
11:23:28,634182.0,0.0,0.0
11:23:28,635378.0,0.0,0.0
11:23:28,633485.0,0.0,0.0
11:23:28,635361.0,0.0,0.0
11:23:28,634223.0,0.0,0.0
11:23:28,634193.0,0.0,0.0
11:23:28,635413.0,0.0,0.0
11:23:28,633515.0,0.0,0.0
11:23:28,635414.0,0.0,0.0
11:23:28,634264.0,0.0,0.0
11:23:28,634231.0,0.0,0.0
11:23:28,635438.0,0.0,0.0
11:23:28,633546.0,0.0,0.0
11:23:28,635422.0,0.0,0.0
11:23:28,634316.0,0.0,0.0
11:23:28,634273.0,0.0,0.0
11:23:28,635418.0,0.0,0.0
11:23:29,633530.0,0.0,0.0
11:23:29,635423.0,0.0,0.0
11:23:29,634272.0,0.0,0.0
11:23:29,634266.0,0.0,0.0
11:23:29,635414.0,0.0,0.0
11:23:29,633578.0,0.0,0.0
11:23:29,635454.0,0.0,0.0
11:23:29,634291.0,0.0,0.0
11:23:29,634313.0,0.0,0.0
11:23:29,635473.0,0.0,0.0
11:23:29,633579.0,0.0,0.0
11:23:29,635486.0,0.0,0.0
11:23:29,634303.0,0.0,0.0
11:23:29,634344.0,0.0,0.0
11:23:29,635476.0,0.0,0.0
11:23:29,633609.0,0.0,0.0
11:23:29,635498.0,0.0,0.0
11:23:29,634286.0,0.0,0.0
11:23:29,634337.0,0.0,0.0
11:23:29,635473.0,0.0,0.0
11:23:29,633615.0,0.0,0.0
11:23:29,635506.0,0.0,0.0
11:23:29,634281.0,0.0,0.0
11:23:29,634358.0,0.0,0.0
11:23:29,635463.0,0.0,0.0
11:23:29,633621.0,0.0,0.0
11:23:29,635538.0,0.0,0.0
11:23:29,634336.0,0.0,0.0
11:23:29,634401.0,0.0,0.0
11:23:29,635471.0,0.0,0.0
11:23:29,633624.0,0.0,0.0
11:23:29,635558.0,0.0,0.0
11:23:29,634318.0,0.0,0.0
11:23:29,634418.0,0.0,0.0
11:23:29,635543.0,0.0,0.0
11:23:29,633671.0,0.0,0.0
11:23:29,635572.0,0.0,0.0
11:23:29,634314.0,0.0,0.0
11:23:29,634434.0,0.0,0.0
11:23:29,635501.0,0.0,0.0
11:23:29,633631.0,0.0,0.0
11:23:29,635586.0,0.0,0.0
11:23:29,634334.0,0.0,0.0
11:23:29,634456.0,0.0,0.0
11:23:29,635511.0,0.0,0.0
11:23:29,633688.0,0.0,0.0
11:23:29,635619.0,0.0,0.0
11:23:29,634323.0,0.0,0.0
11:23:29,634492.0,0.0,0.0
11:23:29,635559.0,0.0,0.0
11:23:29,633726.0,0.0,0.0
11:23:29,635660.0,0.0,0.0
11:23:29,634348.0,0.0,0.0
11:23:29,634513.0,0.0,0.0
11:23:29,635546.0,0.0,0.0
11:23:29,633711.0,0.0,0.0
11:23:29,635684.0,0.0,0.0
11:23:29,634380.0,0.0,0.0
11:23:29,634552.0,0.0,0.0
11:23:29,635539.0,0.0,0.0
11:23:29,633723.0,0.0,0.0
11:23:29,635689.0,0.0,0.0
11:23:29,634347.0,0.0,0.0
11:23:29,634560.0,0.0,0.0
11:23:29,635567.0,0.0,0.0
11:23:29,633754.0,0.0,0.0
11:23:29,635711.0,0.0,0.0
11:23:29,634369.0,0.0,0.0
11:23:29,634578.0,0.0,0.0
11:23:29,635574.0,0.0,0.0
11:23:29,633768.0,0.0,0.0
11:23:29,635696.0,0.0,0.0
11:23:29,634339.0,0.0,0.0
11:23:29,634611.0,0.0,0.0
11:23:29,635609.0,0.0,0.0
11:23:29,633787.0,0.0,0.0
11:23:29,635749.0,0.0,0.0
11:23:29,634376.0,0.0,0.0
11:23:29,634631.0,0.0,0.0
11:23:29,635593.0,0.0,0.0
11:23:29,633791.0,0.0,0.0
11:23:29,635769.0,0.0,0.0
11:23:29,634405.0,0.0,0.0
11:23:29,634641.0,0.0,0.0
11:23:29,635579.0,0.0,0.0
11:23:29,633816.0,0.0,0.0
11:23:29,635758.0,0.0,0.0
11:23:29,634376.0,0.0,0.0
11:23:29,634665.0,0.0,0.0
11:23:29,635593.0,0.0,0.0
11:23:29,633810.0,0.0,0.0
11:23:29,635761.0,0.0,0.0
11:23:29,634369.0,0.0,0.0
11:23:29,634644.0,0.0,0.0
11:23:29,635541.0,0.0,0.0
11:23:29,633788.0,0.0,0.0
11:23:29,635813.0,0.0,0.0
11:23:29,634431.0,0.0,0.0
11:23:29,634755.0,0.0,0.0
11:23:29,635604.0,0.0,0.0
11:23:29,633808.0,0.0,0.0
11:23:29,635786.0,0.0,0.0
11:23:29,634362.0,0.0,0.0
11:23:29,634676.0,0.0,0.0
11:23:29,635590.0,0.0,0.0
11:23:29,633808.0,0.0,0.0
11:23:29,635769.0,0.0,0.0
11:23:29,634323.0,0.0,0.0
11:23:29,634716.0,0.0,0.0
11:23:29,635591.0,0.0,0.0
11:23:29,633814.0,0.0,0.0
11:23:29,635779.0,0.0,0.0
11:23:29,634313.0,0.0,0.0
11:23:29,634675.0,0.0,0.0
11:23:29,635536.0,0.0,0.0
11:23:29,633735.0,0.0,0.0
11:23:29,635728.0,0.0,0.0
11:23:29,634258.0,0.0,0.0
11:23:29,634614.0,0.0,0.0
11:23:29,635426.0,0.0,0.0
11:23:29,633707.0,0.0,0.0
11:23:29,635656.0,0.0,0.0
11:23:29,634223.0,0.0,0.0
11:23:29,634564.0,0.0,0.0
11:23:29,635368.0,0.0,0.0
11:23:30,633698.0,0.0,0.0
11:23:30,635614.0,0.0,0.0
11:23:30,634178.0,0.0,0.0
11:23:30,634549.0,0.0,0.0
11:23:30,635337.0,0.0,0.0
11:23:30,633678.0,0.0,0.0
11:23:30,635604.0,0.0,0.0
11:23:30,634113.0,0.0,0.0
11:23:30,634559.0,0.0,0.0
11:23:30,635354.0,0.0,0.0
11:23:30,633660.0,0.0,0.0
11:23:30,635616.0,0.0,0.0
11:23:30,634087.0,0.0,0.0
11:23:30,634546.0,0.0,0.0
11:23:30,635332.0,0.0,0.0
11:23:30,633645.0,0.0,0.0
11:23:30,635601.0,0.0,0.0
11:23:30,634040.0,0.0,0.0
11:23:30,634483.0,0.0,0.0
11:23:30,635253.0,0.0,0.0
11:23:30,633576.0,0.0,0.0
11:23:30,635559.0,0.0,0.0
11:23:30,634030.0,0.0,0.0
11:23:30,634491.0,0.0,0.0
11:23:30,635248.0,0.0,0.0
11:23:30,633588.0,0.0,0.0
11:23:30,635565.0,0.0,0.0
11:23:30,633994.0,0.0,0.0
11:23:30,634518.0,0.0,0.0
11:23:30,635239.0,0.0,0.0
11:23:30,633559.0,0.0,0.0
11:23:30,635534.0,0.0,0.0
11:23:30,633978.0,0.0,0.0
11:23:30,634536.0,0.0,0.0
11:23:30,635201.0,0.0,0.0
11:23:30,633524.0,0.0,0.0
11:23:30,635541.0,0.0,0.0
11:23:30,634003.0,0.0,0.0
11:23:30,634466.0,0.0,0.0
11:23:30,635145.0,0.0,0.0
11:23:30,633530.0,0.0,0.0
11:23:30,635539.0,0.0,0.0
11:23:30,633917.0,0.0,0.0
11:23:30,634459.0,0.0,0.0
11:23:30,635130.0,0.0,0.0
11:23:30,633471.0,0.0,0.0
11:23:30,635473.0,0.0,0.0
11:23:30,633909.0,0.0,0.0
11:23:30,634496.0,0.0,0.0
11:23:30,635144.0,0.0,0.0
11:23:30,633497.0,0.0,0.0
11:23:30,635478.0,0.0,0.0
11:23:30,633873.0,0.0,0.0
11:23:30,634467.0,0.0,0.0
11:23:30,635098.0,0.0,0.0
11:23:30,633492.0,0.0,0.0
11:23:30,635488.0,0.0,0.0
11:23:30,633858.0,0.0,0.0
11:23:30,634436.0,0.0,0.0
11:23:30,635071.0,0.0,0.0
11:23:30,633464.0,0.0,0.0
11:23:30,635448.0,0.0,0.0
11:23:30,633819.0,0.0,0.0
11:23:30,634473.0,0.0,0.0
11:23:30,635046.0,0.0,0.0
11:23:30,633414.0,0.0,0.0
11:23:30,635434.0,0.0,0.0
11:23:30,633806.0,0.0,0.0
11:23:30,634453.0,0.0,0.0
11:23:30,635044.0,0.0,0.0
11:23:30,633404.0,0.0,0.0
11:23:30,635440.0,0.0,0.0
11:23:30,633778.0,0.0,0.0
11:23:30,634434.0,0.0,0.0
11:23:30,635016.0,0.0,0.0
11:23:30,633419.0,0.0,0.0
11:23:30,635432.0,0.0,0.0
11:23:30,633764.0,0.0,0.0
11:23:30,634440.0,0.0,0.0
11:23:30,634988.0,0.0,0.0
11:23:30,633415.0,0.0,0.0
11:23:30,635424.0,0.0,0.0
11:23:30,633723.0,0.0,0.0
11:23:30,634414.0,0.0,0.0
11:23:30,634956.0,0.0,0.0
11:23:30,633380.0,0.0,0.0
11:23:30,635434.0,0.0,0.0
11:23:30,633751.0,0.0,0.0
11:23:30,634459.0,0.0,0.0
11:23:30,634956.0,0.0,0.0
11:23:30,633381.0,0.0,0.0
11:23:30,635404.0,0.0,0.0
11:23:30,633696.0,0.0,0.0
11:23:30,634429.0,0.0,0.0
11:23:30,634957.0,0.0,0.0
11:23:30,633373.0,0.0,0.0
11:23:30,635378.0,0.0,0.0
11:23:30,633649.0,0.0,0.0
11:23:30,634396.0,0.0,0.0
11:23:30,634901.0,0.0,0.0
11:23:30,633381.0,0.0,0.0
11:23:30,635389.0,0.0,0.0
11:23:30,633686.0,0.0,0.0
11:23:30,634423.0,0.0,0.0
11:23:30,634910.0,0.0,0.0
11:23:30,633343.0,0.0,0.0
11:23:30,635390.0,0.0,0.0
11:23:30,633671.0,0.0,0.0
11:23:30,634437.0,0.0,0.0
11:23:30,634893.0,0.0,0.0
11:23:30,633367.0,0.0,0.0
11:23:30,635358.0,0.0,0.0
11:23:30,633648.0,0.0,0.0
11:23:30,634419.0,0.0,0.0
11:23:30,634884.0,0.0,0.0
11:23:30,633374.0,0.0,0.0
11:23:30,635399.0,0.0,0.0
11:23:30,633644.0,0.0,0.0
11:23:30,634438.0,0.0,0.0
11:23:30,634845.0,0.0,0.0
11:23:30,633344.0,0.0,0.0
11:23:30,635318.0,0.0,0.0
11:23:30,633581.0,0.0,0.0
11:23:30,634476.0,0.0,0.0
11:23:30,634963.0,0.0,0.0
11:23:31,633421.0,0.0,0.0
11:23:31,635421.0,0.0,0.0
11:23:31,633610.0,0.0,0.0
11:23:31,634435.0,0.0,0.0
11:23:31,634838.0,0.0,0.0
11:23:31,633336.0,0.0,0.0
11:23:31,635333.0,0.0,0.0
11:23:31,633578.0,0.0,0.0
11:23:31,634445.0,0.0,0.0
11:23:31,634804.0,0.0,0.0
11:23:31,633350.0,0.0,0.0
11:23:31,635349.0,0.0,0.0
11:23:31,633531.0,0.0,0.0
11:23:31,634411.0,0.0,0.0
11:23:31,634754.0,0.0,0.0
11:23:31,633280.0,0.0,0.0
11:23:31,635276.0,0.0,0.0
11:23:31,633496.0,0.0,0.0
11:23:31,634353.0,0.0,0.0
11:23:31,634696.0,0.0,0.0
11:23:31,633214.0,0.0,0.0
11:23:31,635234.0,0.0,0.0
11:23:31,633444.0,0.0,0.0
11:23:31,634334.0,0.0,0.0
11:23:31,634659.0,0.0,0.0
11:23:31,633217.0,0.0,0.0
11:23:31,635223.0,0.0,0.0
11:23:31,633414.0,0.0,0.0
11:23:31,634294.0,0.0,0.0
11:23:31,634636.0,0.0,0.0
11:23:31,633195.0,0.0,0.0
11:23:31,635167.0,0.0,0.0
11:23:31,633374.0,0.0,0.0
11:23:31,634269.0,0.0,0.0
11:23:31,634563.0,0.0,0.0
11:23:31,633153.0,0.0,0.0
11:23:31,635133.0,0.0,0.0
11:23:31,633347.0,0.0,0.0
11:23:31,634294.0,0.0,0.0
11:23:31,634554.0,0.0,0.0
11:23:31,633156.0,0.0,0.0
11:23:31,635141.0,0.0,0.0
11:23:31,633314.0,0.0,0.0
11:23:31,634271.0,0.0,0.0
11:23:31,634556.0,0.0,0.0
11:23:31,633152.0,0.0,0.0
11:23:31,635142.0,0.0,0.0
11:23:31,633328.0,0.0,0.0
11:23:31,634294.0,0.0,0.0
11:23:31,634511.0,0.0,0.0
11:23:31,633129.0,0.0,0.0
11:23:31,635119.0,0.0,0.0
11:23:31,633290.0,0.0,0.0
11:23:31,634257.0,0.0,0.0
11:23:31,634517.0,0.0,0.0
11:23:31,633164.0,0.0,0.0
11:23:31,635134.0,0.0,0.0
11:23:31,633294.0,0.0,0.0
11:23:31,634277.0,0.0,0.0
11:23:31,634478.0,0.0,0.0
11:23:31,633126.0,0.0,0.0
11:23:31,635136.0,0.0,0.0
11:23:31,633268.0,0.0,0.0
11:23:31,634259.0,0.0,0.0
11:23:31,634494.0,0.0,0.0
11:23:31,633135.0,0.0,0.0
11:23:31,635099.0,0.0,0.0
11:23:31,633254.0,0.0,0.0
11:23:31,634263.0,0.0,0.0
11:23:31,634455.0,0.0,0.0
11:23:31,633138.0,0.0,0.0
11:23:31,635080.0,0.0,0.0
11:23:31,633255.0,0.0,0.0
11:23:31,634279.0,0.0,0.0
11:23:31,634441.0,0.0,0.0
11:23:31,633134.0,0.0,0.0
11:23:31,635110.0,0.0,0.0
11:23:31,633256.0,0.0,0.0
11:23:31,634291.0,0.0,0.0
11:23:31,634466.0,0.0,0.0
11:23:31,633129.0,0.0,0.0
11:23:31,635111.0,0.0,0.0
11:23:31,633243.0,0.0,0.0
11:23:31,634319.0,0.0,0.0
11:23:31,634460.0,0.0,0.0
11:23:31,633168.0,0.0,0.0
11:23:31,635154.0,0.0,0.0
11:23:31,633283.0,0.0,0.0
11:23:31,634349.0,0.0,0.0
11:23:31,634490.0,0.0,0.0
11:23:31,633207.0,0.0,0.0
11:23:31,635171.0,0.0,0.0
11:23:31,633304.0,0.0,0.0
11:23:31,634363.0,0.0,0.0
11:23:31,634476.0,0.0,0.0
11:23:31,633223.0,0.0,0.0
11:23:31,635176.0,0.0,0.0
11:23:31,633314.0,0.0,0.0
11:23:31,634387.0,0.0,0.0
11:23:31,634468.0,0.0,0.0
11:23:31,633251.0,0.0,0.0
11:23:31,635205.0,0.0,0.0
11:23:31,633296.0,0.0,0.0
11:23:31,634432.0,0.0,0.0
11:23:31,634505.0,0.0,0.0
11:23:31,633254.0,0.0,0.0
11:23:31,635177.0,0.0,0.0
11:23:31,633288.0,0.0,0.0
11:23:31,634414.0,0.0,0.0
11:23:31,634509.0,0.0,0.0
11:23:31,633261.0,0.0,0.0
11:23:31,635174.0,0.0,0.0
11:23:31,633274.0,0.0,0.0
11:23:31,634437.0,0.0,0.0
11:23:31,634474.0,0.0,0.0
11:23:31,633264.0,0.0,0.0
11:23:31,635221.0,0.0,0.0
11:23:31,633315.0,0.0,0.0
11:23:31,634471.0,0.0,0.0
11:23:31,634520.0,0.0,0.0
11:23:31,633304.0,0.0,0.0
11:23:31,635216.0,0.0,0.0
11:23:31,633326.0,0.0,0.0
11:23:31,634533.0,0.0,0.0
11:23:31,634531.0,0.0,0.0
11:23:32,633310.0,0.0,0.0
11:23:32,635254.0,0.0,0.0
11:23:32,633336.0,0.0,0.0
11:23:32,634529.0,0.0,0.0
11:23:32,634532.0,0.0,0.0
11:23:32,633328.0,0.0,0.0
11:23:32,635254.0,0.0,0.0
11:23:32,633321.0,0.0,0.0
11:23:32,634540.0,0.0,0.0
11:23:32,634522.0,0.0,0.0
11:23:32,633341.0,0.0,0.0
11:23:32,635232.0,0.0,0.0
11:23:32,633321.0,0.0,0.0
11:23:32,634547.0,0.0,0.0
11:23:32,634499.0,0.0,0.0
11:23:32,633353.0,0.0,0.0
11:23:32,635256.0,0.0,0.0
11:23:32,633338.0,0.0,0.0
11:23:32,634569.0,0.0,0.0
11:23:32,634504.0,0.0,0.0
11:23:32,633374.0,0.0,0.0
11:23:32,635258.0,0.0,0.0
11:23:32,633324.0,0.0,0.0
11:23:32,634577.0,0.0,0.0
11:23:32,634454.0,0.0,0.0
11:23:32,633366.0,0.0,0.0
11:23:32,635334.0,0.0,0.0
11:23:32,633449.0,0.0,0.0
11:23:32,634676.0,0.0,0.0
11:23:32,634555.0,0.0,0.0
11:23:32,633409.0,0.0,0.0
11:23:32,635294.0,0.0,0.0
11:23:32,633357.0,0.0,0.0
11:23:32,634616.0,0.0,0.0
11:23:32,634521.0,0.0,0.0
11:23:32,633419.0,0.0,0.0
11:23:32,635308.0,0.0,0.0
11:23:32,633363.0,0.0,0.0
11:23:32,634611.0,0.0,0.0
11:23:32,634484.0,0.0,0.0
11:23:32,633407.0,0.0,0.0
11:23:32,635282.0,0.0,0.0
11:23:32,633324.0,0.0,0.0
11:23:32,634631.0,0.0,0.0
11:23:32,634480.0,0.0,0.0
11:23:32,633388.0,0.0,0.0
11:23:32,635275.0,0.0,0.0
11:23:32,633297.0,0.0,0.0
11:23:32,634564.0,0.0,0.0
11:23:32,634401.0,0.0,0.0
11:23:32,633379.0,0.0,0.0
11:23:32,635257.0,0.0,0.0
11:23:32,633290.0,0.0,0.0
11:23:32,634543.0,0.0,0.0
11:23:32,634373.0,0.0,0.0
11:23:32,633347.0,0.0,0.0
11:23:32,635172.0,0.0,0.0
11:23:32,633199.0,0.0,0.0
11:23:32,634560.0,0.0,0.0
11:23:32,634369.0,0.0,0.0
11:23:32,633343.0,0.0,0.0
11:23:32,635188.0,0.0,0.0
11:23:32,633214.0,0.0,0.0
11:23:32,634568.0,0.0,0.0
11:23:32,634358.0,0.0,0.0
11:23:32,633339.0,0.0,0.0
11:23:32,635188.0,0.0,0.0
11:23:32,633227.0,0.0,0.0
11:23:32,634581.0,0.0,0.0
11:23:32,634377.0,0.0,0.0
11:23:32,633369.0,0.0,0.0
11:23:32,635210.0,0.0,0.0
11:23:32,633238.0,0.0,0.0
11:23:32,634589.0,0.0,0.0
11:23:32,634375.0,0.0,0.0
11:23:32,633411.0,0.0,0.0
11:23:32,635242.0,0.0,0.0
11:23:32,633256.0,0.0,0.0
11:23:32,634616.0,0.0,0.0
11:23:32,634381.0,0.0,0.0
11:23:32,633403.0,0.0,0.0
11:23:32,635236.0,0.0,0.0
11:23:32,633254.0,0.0,0.0
11:23:32,634623.0,0.0,0.0
11:23:32,634383.0,0.0,0.0
11:23:32,633456.0,0.0,0.0
11:23:32,635279.0,0.0,0.0
11:23:32,633271.0,0.0,0.0
11:23:32,634683.0,0.0,0.0
11:23:32,634407.0,0.0,0.0
11:23:32,633483.0,0.0,0.0
11:23:32,635288.0,0.0,0.0
11:23:32,633315.0,0.0,0.0
11:23:32,634704.0,0.0,0.0
11:23:32,634406.0,0.0,0.0
11:23:32,633506.0,0.0,0.0
11:23:32,635299.0,0.0,0.0
11:23:32,633313.0,0.0,0.0
11:23:32,634716.0,0.0,0.0
11:23:32,634392.0,0.0,0.0
11:23:32,633505.0,0.0,0.0
11:23:32,635310.0,0.0,0.0
11:23:32,633328.0,0.0,0.0
11:23:32,634751.0,0.0,0.0
11:23:32,634423.0,0.0,0.0
11:23:32,633572.0,0.0,0.0
11:23:32,635344.0,0.0,0.0
11:23:32,633338.0,0.0,0.0
11:23:32,634774.0,0.0,0.0
11:23:32,634429.0,0.0,0.0
11:23:32,633559.0,0.0,0.0
11:23:32,635347.0,0.0,0.0
11:23:32,633332.0,0.0,0.0
11:23:32,634779.0,0.0,0.0
11:23:32,634434.0,0.0,0.0
11:23:32,633560.0,0.0,0.0
11:23:32,635309.0,0.0,0.0
11:23:32,633327.0,0.0,0.0
11:23:32,634813.0,0.0,0.0
11:23:32,634406.0,0.0,0.0
11:23:32,633568.0,0.0,0.0
11:23:32,635355.0,0.0,0.0
11:23:32,633376.0,0.0,0.0
11:23:32,634868.0,0.0,0.0
11:23:32,634459.0,0.0,0.0
11:23:33,633620.0,0.0,0.0
11:23:33,635380.0,0.0,0.0
11:23:33,633387.0,0.0,0.0
11:23:33,634856.0,0.0,0.0
11:23:33,634443.0,0.0,0.0
11:23:33,633654.0,0.0,0.0
11:23:33,635409.0,0.0,0.0
11:23:33,633414.0,0.0,0.0
11:23:33,634895.0,0.0,0.0
11:23:33,634458.0,0.0,0.0
11:23:33,633683.0,0.0,0.0
11:23:33,635411.0,0.0,0.0
11:23:33,633418.0,0.0,0.0
11:23:33,634935.0,0.0,0.0
11:23:33,634473.0,0.0,0.0
11:23:33,633680.0,0.0,0.0
11:23:33,635411.0,0.0,0.0
11:23:33,633439.0,0.0,0.0
11:23:33,634998.0,0.0,0.0
11:23:33,634519.0,0.0,0.0
11:23:33,633728.0,0.0,0.0
11:23:33,635437.0,0.0,0.0
11:23:33,633438.0,0.0,0.0
11:23:33,634949.0,0.0,0.0
11:23:33,634486.0,0.0,0.0
11:23:33,633769.0,0.0,0.0
11:23:33,635477.0,0.0,0.0
11:23:33,633479.0,0.0,0.0
11:23:33,634991.0,0.0,0.0
11:23:33,634469.0,0.0,0.0
11:23:33,633754.0,0.0,0.0
11:23:33,635419.0,0.0,0.0
11:23:33,633479.0,0.0,0.0
11:23:33,634988.0,0.0,0.0
11:23:33,634492.0,0.0,0.0
11:23:33,633791.0,0.0,0.0
11:23:33,635429.0,0.0,0.0
11:23:33,633497.0,0.0,0.0
11:23:33,634986.0,0.0,0.0
11:23:33,634486.0,0.0,0.0
11:23:33,633793.0,0.0,0.0
11:23:33,635409.0,0.0,0.0
11:23:33,633461.0,0.0,0.0
11:23:33,634991.0,0.0,0.0
11:23:33,634442.0,0.0,0.0
11:23:33,633764.0,0.0,0.0
11:23:33,635369.0,0.0,0.0
11:23:33,633423.0,0.0,0.0
11:23:33,635063.0,0.0,0.0
11:23:33,634499.0,0.0,0.0
11:23:33,633823.0,0.0,0.0
11:23:33,635431.0,0.0,0.0
11:23:33,633423.0,0.0,0.0
11:23:33,634989.0,0.0,0.0
11:23:33,634402.0,0.0,0.0
11:23:33,633762.0,0.0,0.0
11:23:33,635387.0,0.0,0.0
11:23:33,633404.0,0.0,0.0
11:23:33,635012.0,0.0,0.0
11:23:33,634411.0,0.0,0.0
11:23:33,633779.0,0.0,0.0
11:23:33,635406.0,0.0,0.0
11:23:33,633421.0,0.0,0.0
11:23:33,634986.0,0.0,0.0
11:23:33,634361.0,0.0,0.0
11:23:33,633703.0,0.0,0.0
11:23:33,635334.0,0.0,0.0
11:23:33,633334.0,0.0,0.0
11:23:33,634924.0,0.0,0.0
11:23:33,634281.0,0.0,0.0
11:23:33,633663.0,0.0,0.0
11:23:33,635271.0,0.0,0.0
11:23:33,633257.0,0.0,0.0
11:23:33,634837.0,0.0,0.0
11:23:33,634208.0,0.0,0.0
11:23:33,633609.0,0.0,0.0
11:23:33,635191.0,0.0,0.0
11:23:33,633193.0,0.0,0.0
11:23:33,634824.0,0.0,0.0
11:23:33,634176.0,0.0,0.0
11:23:33,633599.0,0.0,0.0
11:23:33,635226.0,0.0,0.0
11:23:33,633178.0,0.0,0.0
11:23:33,634855.0,0.0,0.0
11:23:33,634184.0,0.0,0.0
11:23:33,633606.0,0.0,0.0
11:23:33,635185.0,0.0,0.0
11:23:33,633183.0,0.0,0.0
11:23:33,634881.0,0.0,0.0
11:23:33,634170.0,0.0,0.0
11:23:33,633597.0,0.0,0.0
11:23:33,635177.0,0.0,0.0
11:23:33,633173.0,0.0,0.0
11:23:33,634836.0,0.0,0.0
11:23:33,634100.0,0.0,0.0
11:23:33,633573.0,0.0,0.0
11:23:33,635147.0,0.0,0.0
11:23:33,633136.0,0.0,0.0
11:23:33,634831.0,0.0,0.0
11:23:33,634083.0,0.0,0.0
11:23:33,633531.0,0.0,0.0
11:23:33,635089.0,0.0,0.0
11:23:33,633056.0,0.0,0.0
11:23:33,634764.0,0.0,0.0
11:23:33,634016.0,0.0,0.0
11:23:33,633533.0,0.0,0.0
11:23:33,635116.0,0.0,0.0
11:23:33,633104.0,0.0,0.0
11:23:33,634793.0,0.0,0.0
11:23:33,634016.0,0.0,0.0
11:23:33,633518.0,0.0,0.0
11:23:33,635103.0,0.0,0.0
11:23:33,633056.0,0.0,0.0
11:23:33,634773.0,0.0,0.0
11:23:33,634002.0,0.0,0.0
11:23:33,633490.0,0.0,0.0
11:23:33,635036.0,0.0,0.0
11:23:33,633028.0,0.0,0.0
11:23:33,634753.0,0.0,0.0
11:23:33,633929.0,0.0,0.0
11:23:33,633493.0,0.0,0.0
11:23:33,635020.0,0.0,0.0
11:23:33,632992.0,0.0,0.0
11:23:33,634729.0,0.0,0.0
11:23:33,633928.0,0.0,0.0
11:23:34,633488.0,0.0,0.0
11:23:34,635013.0,0.0,0.0
11:23:34,632994.0,0.0,0.0
11:23:34,634750.0,0.0,0.0
11:23:34,633929.0,0.0,0.0
11:23:34,633504.0,0.0,0.0
11:23:34,635035.0,0.0,0.0
11:23:34,632986.0,0.0,0.0
11:23:34,634744.0,0.0,0.0
11:23:34,633908.0,0.0,0.0
11:23:34,633494.0,0.0,0.0
11:23:34,634989.0,0.0,0.0
11:23:34,632988.0,0.0,0.0
11:23:34,634784.0,0.0,0.0
11:23:34,633901.0,0.0,0.0
11:23:34,633513.0,0.0,0.0
11:23:34,634980.0,0.0,0.0
11:23:34,632965.0,0.0,0.0
11:23:34,634751.0,0.0,0.0
11:23:34,633889.0,0.0,0.0
11:23:34,633500.0,0.0,0.0
11:23:34,634983.0,0.0,0.0
11:23:34,632973.0,0.0,0.0
11:23:34,634754.0,0.0,0.0
11:23:34,633873.0,0.0,0.0
11:23:34,633508.0,0.0,0.0
11:23:34,635029.0,0.0,0.0
11:23:34,632983.0,0.0,0.0
11:23:34,634761.0,0.0,0.0
11:23:34,633846.0,0.0,0.0
11:23:34,633496.0,0.0,0.0
11:23:34,635014.0,0.0,0.0
11:23:34,632963.0,0.0,0.0
11:23:34,634755.0,0.0,0.0
11:23:34,633837.0,0.0,0.0
11:23:34,633503.0,0.0,0.0
11:23:34,634990.0,0.0,0.0
11:23:34,632961.0,0.0,0.0
11:23:34,634742.0,0.0,0.0
11:23:34,633807.0,0.0,0.0
11:23:34,633496.0,0.0,0.0
11:23:34,634939.0,0.0,0.0
11:23:34,632927.0,0.0,0.0
11:23:34,634751.0,0.0,0.0
11:23:34,633811.0,0.0,0.0
11:23:34,633519.0,0.0,0.0
11:23:34,634963.0,0.0,0.0
11:23:34,632916.0,0.0,0.0
11:23:34,634729.0,0.0,0.0
11:23:34,633798.0,0.0,0.0
11:23:34,633518.0,0.0,0.0
11:23:34,634935.0,0.0,0.0
11:23:34,632914.0,0.0,0.0
11:23:34,634723.0,0.0,0.0
11:23:34,633772.0,0.0,0.0
11:23:34,633504.0,0.0,0.0
11:23:34,634928.0,0.0,0.0
11:23:34,632919.0,0.0,0.0
11:23:34,634735.0,0.0,0.0
11:23:34,633744.0,0.0,0.0
11:23:34,633488.0,0.0,0.0
11:23:34,634896.0,0.0,0.0
11:23:34,632886.0,0.0,0.0
11:23:34,634722.0,0.0,0.0
11:23:34,633709.0,0.0,0.0
11:23:34,633494.0,0.0,0.0
11:23:34,634898.0,0.0,0.0
11:23:34,632881.0,0.0,0.0
11:23:34,634729.0,0.0,0.0
11:23:34,633676.0,0.0,0.0
11:23:34,633429.0,0.0,0.0
11:23:34,634793.0,0.0,0.0
11:23:34,632804.0,0.0,0.0
11:23:34,634757.0,0.0,0.0
11:23:34,633781.0,0.0,0.0
11:23:34,633553.0,0.0,0.0
11:23:34,634850.0,0.0,0.0
11:23:34,632846.0,0.0,0.0
11:23:34,634737.0,0.0,0.0
11:23:34,633691.0,0.0,0.0
11:23:34,633485.0,0.0,0.0
11:23:34,634834.0,0.0,0.0
11:23:34,632857.0,0.0,0.0
11:23:34,634740.0,0.0,0.0
11:23:34,633675.0,0.0,0.0
11:23:34,633503.0,0.0,0.0
11:23:34,634833.0,0.0,0.0
11:23:34,632837.0,0.0,0.0
11:23:34,634692.0,0.0,0.0
11:23:34,633599.0,0.0,0.0
11:23:34,633460.0,0.0,0.0
11:23:34,634748.0,0.0,0.0
11:23:34,632749.0,0.0,0.0
11:23:34,634663.0,0.0,0.0
11:23:34,633564.0,0.0,0.0
11:23:34,633436.0,0.0,0.0
11:23:34,634730.0,0.0,0.0
11:23:34,632732.0,0.0,0.0
11:23:34,634607.0,0.0,0.0
11:23:34,633494.0,0.0,0.0
11:23:34,633389.0,0.0,0.0
11:23:34,634669.0,0.0,0.0
11:23:34,632671.0,0.0,0.0
11:23:34,634573.0,0.0,0.0
11:23:34,633467.0,0.0,0.0
11:23:34,633359.0,0.0,0.0
11:23:34,634648.0,0.0,0.0
11:23:34,632644.0,0.0,0.0
11:23:34,634544.0,0.0,0.0
11:23:34,633390.0,0.0,0.0
11:23:34,633329.0,0.0,0.0
11:23:34,634589.0,0.0,0.0
11:23:34,632609.0,0.0,0.0
11:23:34,634569.0,0.0,0.0
11:23:34,633442.0,0.0,0.0
11:23:34,633352.0,0.0,0.0
11:23:34,634616.0,0.0,0.0
11:23:34,632655.0,0.0,0.0
11:23:34,634561.0,0.0,0.0
11:23:34,633406.0,0.0,0.0
11:23:34,633360.0,0.0,0.0
11:23:34,634607.0,0.0,0.0
11:23:34,632642.0,0.0,0.0
11:23:34,634587.0,0.0,0.0
11:23:34,633362.0,0.0,0.0
11:23:35,633321.0,0.0,0.0
11:23:35,634553.0,0.0,0.0
11:23:35,632621.0,0.0,0.0
11:23:35,634564.0,0.0,0.0
11:23:35,633404.0,0.0,0.0
11:23:35,633376.0,0.0,0.0
11:23:35,634550.0,0.0,0.0
11:23:35,632615.0,0.0,0.0
11:23:35,634548.0,0.0,0.0
11:23:35,633391.0,0.0,0.0
11:23:35,633373.0,0.0,0.0
11:23:35,634564.0,0.0,0.0
11:23:35,632628.0,0.0,0.0
11:23:35,634588.0,0.0,0.0
11:23:35,633369.0,0.0,0.0
11:23:35,633370.0,0.0,0.0
11:23:35,634566.0,0.0,0.0
11:23:35,632619.0,0.0,0.0
11:23:35,634581.0,0.0,0.0
11:23:35,633363.0,0.0,0.0
11:23:35,633388.0,0.0,0.0
11:23:35,634573.0,0.0,0.0
11:23:35,632643.0,0.0,0.0
11:23:35,634599.0,0.0,0.0
11:23:35,633348.0,0.0,0.0
11:23:35,633377.0,0.0,0.0
11:23:35,634559.0,0.0,0.0
11:23:35,632634.0,0.0,0.0
11:23:35,634617.0,0.0,0.0
11:23:35,633364.0,0.0,0.0
11:23:35,633441.0,0.0,0.0
11:23:35,634603.0,0.0,0.0
11:23:35,632645.0,0.0,0.0
11:23:35,634624.0,0.0,0.0
11:23:35,633403.0,0.0,0.0
11:23:35,633459.0,0.0,0.0
11:23:35,634571.0,0.0,0.0
11:23:35,632667.0,0.0,0.0
11:23:35,634630.0,0.0,0.0
11:23:35,633366.0,0.0,0.0
11:23:35,633469.0,0.0,0.0
11:23:35,634586.0,0.0,0.0
11:23:35,632689.0,0.0,0.0
11:23:35,634649.0,0.0,0.0
11:23:35,633381.0,0.0,0.0
11:23:35,633499.0,0.0,0.0
11:23:35,634613.0,0.0,0.0
11:23:35,632709.0,0.0,0.0
11:23:35,634691.0,0.0,0.0
11:23:35,633358.0,0.0,0.0
11:23:35,633488.0,0.0,0.0
11:23:35,634624.0,0.0,0.0
11:23:35,632758.0,0.0,0.0
11:23:35,634722.0,0.0,0.0
11:23:35,633411.0,0.0,0.0
11:23:35,633584.0,0.0,0.0
11:23:35,634666.0,0.0,0.0
11:23:35,632774.0,0.0,0.0
11:23:35,634753.0,0.0,0.0
11:23:35,633409.0,0.0,0.0
11:23:35,633556.0,0.0,0.0
11:23:35,634649.0,0.0,0.0
11:23:35,632776.0,0.0,0.0
11:23:35,634776.0,0.0,0.0
11:23:35,633429.0,0.0,0.0
11:23:35,633589.0,0.0,0.0
11:23:35,634656.0,0.0,0.0
11:23:35,632765.0,0.0,0.0
11:23:35,634763.0,0.0,0.0
11:23:35,633416.0,0.0,0.0
11:23:35,633632.0,0.0,0.0
11:23:35,634639.0,0.0,0.0
11:23:35,632766.0,0.0,0.0
11:23:35,634795.0,0.0,0.0
11:23:35,633438.0,0.0,0.0
11:23:35,633644.0,0.0,0.0
11:23:35,634636.0,0.0,0.0
11:23:35,632799.0,0.0,0.0
11:23:35,634798.0,0.0,0.0
11:23:35,633414.0,0.0,0.0
11:23:35,633649.0,0.0,0.0
11:23:35,634665.0,0.0,0.0
11:23:35,632797.0,0.0,0.0
11:23:35,634802.0,0.0,0.0
11:23:35,633437.0,0.0,0.0
11:23:35,633681.0,0.0,0.0
11:23:35,634651.0,0.0,0.0
11:23:35,632788.0,0.0,0.0
11:23:35,634811.0,0.0,0.0
11:23:35,633403.0,0.0,0.0
11:23:35,633678.0,0.0,0.0
11:23:35,634646.0,0.0,0.0
11:23:35,632807.0,0.0,0.0
11:23:35,634843.0,0.0,0.0
11:23:35,633393.0,0.0,0.0
11:23:35,633659.0,0.0,0.0
11:23:35,634609.0,0.0,0.0
11:23:35,632761.0,0.0,0.0
11:23:35,634832.0,0.0,0.0
11:23:35,633483.0,0.0,0.0
11:23:35,633802.0,0.0,0.0
11:23:35,634729.0,0.0,0.0
11:23:35,632875.0,0.0,0.0
11:23:35,634863.0,0.0,0.0
11:23:35,633437.0,0.0,0.0
11:23:35,633745.0,0.0,0.0
11:23:35,634661.0,0.0,0.0
11:23:35,632838.0,0.0,0.0
11:23:35,634869.0,0.0,0.0
11:23:35,633417.0,0.0,0.0
11:23:35,633766.0,0.0,0.0
11:23:35,634658.0,0.0,0.0
11:23:35,632854.0,0.0,0.0
11:23:35,634879.0,0.0,0.0
11:23:35,633376.0,0.0,0.0
11:23:35,633731.0,0.0,0.0
11:23:35,634636.0,0.0,0.0
11:23:35,632806.0,0.0,0.0
11:23:35,634824.0,0.0,0.0
11:23:35,633371.0,0.0,0.0
11:23:35,633714.0,0.0,0.0
11:23:35,634588.0,0.0,0.0
11:23:35,632773.0,0.0,0.0
11:23:35,634797.0,0.0,0.0
11:23:35,633308.0,0.0,0.0
11:23:36,633696.0,0.0,0.0
11:23:36,634570.0,0.0,0.0
11:23:36,632764.0,0.0,0.0
11:23:36,634809.0,0.0,0.0
11:23:36,633286.0,0.0,0.0
11:23:36,633673.0,0.0,0.0
11:23:36,634517.0,0.0,0.0
11:23:36,632749.0,0.0,0.0
11:23:36,634797.0,0.0,0.0
11:23:36,633281.0,0.0,0.0
11:23:36,633679.0,0.0,0.0
11:23:36,634511.0,0.0,0.0
11:23:36,632774.0,0.0,0.0
11:23:36,634818.0,0.0,0.0
11:23:36,633305.0,0.0,0.0
11:23:36,633724.0,0.0,0.0
11:23:36,634548.0,0.0,0.0
11:23:36,632780.0,0.0,0.0
11:23:36,634815.0,0.0,0.0
11:23:36,633313.0,0.0,0.0
11:23:36,633743.0,0.0,0.0
11:23:36,634565.0,0.0,0.0
11:23:36,632804.0,0.0,0.0
11:23:36,634811.0,0.0,0.0
11:23:36,633256.0,0.0,0.0
11:23:36,633746.0,0.0,0.0
11:23:36,634524.0,0.0,0.0
11:23:36,632793.0,0.0,0.0
11:23:36,634851.0,0.0,0.0
11:23:36,633304.0,0.0,0.0
11:23:36,633791.0,0.0,0.0
11:23:36,634576.0,0.0,0.0
11:23:36,632871.0,0.0,0.0
11:23:36,634898.0,0.0,0.0
11:23:36,633315.0,0.0,0.0
11:23:36,633844.0,0.0,0.0
11:23:36,634588.0,0.0,0.0
11:23:36,632872.0,0.0,0.0
11:23:36,634870.0,0.0,0.0
11:23:36,633344.0,0.0,0.0
11:23:36,633845.0,0.0,0.0
11:23:36,634568.0,0.0,0.0
11:23:36,632835.0,0.0,0.0
11:23:36,634888.0,0.0,0.0
11:23:36,633321.0,0.0,0.0
11:23:36,633843.0,0.0,0.0
11:23:36,634567.0,0.0,0.0
11:23:36,632876.0,0.0,0.0
11:23:36,634909.0,0.0,0.0
11:23:36,633311.0,0.0,0.0
11:23:36,633888.0,0.0,0.0
11:23:36,634591.0,0.0,0.0
11:23:36,632906.0,0.0,0.0
11:23:36,634963.0,0.0,0.0
11:23:36,633351.0,0.0,0.0
11:23:36,633908.0,0.0,0.0
11:23:36,634592.0,0.0,0.0
11:23:36,632899.0,0.0,0.0
11:23:36,634958.0,0.0,0.0
11:23:36,633337.0,0.0,0.0
11:23:36,633933.0,0.0,0.0
11:23:36,634626.0,0.0,0.0
11:23:36,632959.0,0.0,0.0
11:23:36,634993.0,0.0,0.0
11:23:36,633331.0,0.0,0.0
11:23:36,633951.0,0.0,0.0
11:23:36,634606.0,0.0,0.0
11:23:36,632945.0,0.0,0.0
11:23:36,635023.0,0.0,0.0
11:23:36,633376.0,0.0,0.0
11:23:36,633999.0,0.0,0.0
11:23:36,634636.0,0.0,0.0
11:23:36,632993.0,0.0,0.0
11:23:36,635038.0,0.0,0.0
11:23:36,633389.0,0.0,0.0
11:23:36,634016.0,0.0,0.0
11:23:36,634644.0,0.0,0.0
11:23:36,632997.0,0.0,0.0
11:23:36,635039.0,0.0,0.0
11:23:36,633418.0,0.0,0.0
11:23:36,634029.0,0.0,0.0
11:23:36,634634.0,0.0,0.0
11:23:36,633050.0,0.0,0.0
11:23:36,635001.0,0.0,0.0
11:23:36,633392.0,0.0,0.0
11:23:36,634048.0,0.0,0.0
11:23:36,634669.0,0.0,0.0
11:23:36,633087.0,0.0,0.0
11:23:36,635015.0,0.0,0.0
11:23:36,633443.0,0.0,0.0
11:23:36,634059.0,0.0,0.0
11:23:36,634611.0,0.0,0.0
11:23:36,633094.0,0.0,0.0
11:23:36,635058.0,0.0,0.0
11:23:36,633403.0,0.0,0.0
11:23:36,634071.0,0.0,0.0
11:23:36,634621.0,0.0,0.0
11:23:36,633074.0,0.0,0.0
11:23:36,635049.0,0.0,0.0
11:23:36,633408.0,0.0,0.0
11:23:36,634133.0,0.0,0.0
11:23:36,634641.0,0.0,0.0
11:23:36,633093.0,0.0,0.0
11:23:36,635064.0,0.0,0.0
11:23:36,633402.0,0.0,0.0
11:23:36,634142.0,0.0,0.0
11:23:36,634635.0,0.0,0.0
11:23:36,633104.0,0.0,0.0
11:23:36,635109.0,0.0,0.0
11:23:36,633381.0,0.0,0.0
11:23:36,634131.0,0.0,0.0
11:23:36,634640.0,0.0,0.0
11:23:36,633098.0,0.0,0.0
11:23:36,635124.0,0.0,0.0
11:23:36,633409.0,0.0,0.0
11:23:36,634134.0,0.0,0.0
11:23:36,634588.0,0.0,0.0
11:23:36,633048.0,0.0,0.0
11:23:36,635107.0,0.0,0.0
11:23:36,633449.0,0.0,0.0
11:23:36,634268.0,0.0,0.0
11:23:36,634682.0,0.0,0.0
11:23:36,633114.0,0.0,0.0
11:23:36,635107.0,0.0,0.0
11:23:36,633367.0,0.0,0.0
11:23:37,634170.0,0.0,0.0
11:23:37,634618.0,0.0,0.0
11:23:37,633064.0,0.0,0.0
11:23:37,635110.0,0.0,0.0
11:23:37,633364.0,0.0,0.0
11:23:37,634201.0,0.0,0.0
11:23:37,634628.0,0.0,0.0
11:23:37,633083.0,0.0,0.0
11:23:37,635079.0,0.0,0.0
11:23:37,633326.0,0.0,0.0
11:23:37,634130.0,0.0,0.0
11:23:37,634556.0,0.0,0.0
11:23:37,633047.0,0.0,0.0
11:23:37,635047.0,0.0,0.0
11:23:37,633258.0,0.0,0.0
11:23:37,634098.0,0.0,0.0
11:23:37,634501.0,0.0,0.0
11:23:37,632991.0,0.0,0.0
11:23:37,635006.0,0.0,0.0
11:23:37,633219.0,0.0,0.0
11:23:37,634050.0,0.0,0.0
11:23:37,634429.0,0.0,0.0
11:23:37,632930.0,0.0,0.0
11:23:37,634947.0,0.0,0.0
11:23:37,633150.0,0.0,0.0
11:23:37,634029.0,0.0,0.0
11:23:37,634426.0,0.0,0.0
11:23:37,632929.0,0.0,0.0
11:23:37,634964.0,0.0,0.0
11:23:37,633148.0,0.0,0.0
11:23:37,634037.0,0.0,0.0
11:23:37,634385.0,0.0,0.0
11:23:37,632923.0,0.0,0.0
11:23:37,634951.0,0.0,0.0
11:23:37,633135.0,0.0,0.0
11:23:37,634016.0,0.0,0.0
11:23:37,634331.0,0.0,0.0
11:23:37,632903.0,0.0,0.0
11:23:37,634940.0,0.0,0.0
11:23:37,633083.0,0.0,0.0
11:23:37,634010.0,0.0,0.0
11:23:37,634315.0,0.0,0.0
11:23:37,632873.0,0.0,0.0
11:23:37,634899.0,0.0,0.0
11:23:37,633061.0,0.0,0.0
11:23:37,633985.0,0.0,0.0
11:23:37,634273.0,0.0,0.0
11:23:37,632861.0,0.0,0.0
11:23:37,634909.0,0.0,0.0
11:23:37,633037.0,0.0,0.0
11:23:37,634004.0,0.0,0.0
11:23:37,634282.0,0.0,0.0
11:23:37,632860.0,0.0,0.0
11:23:37,634866.0,0.0,0.0
11:23:37,632984.0,0.0,0.0
11:23:37,633974.0,0.0,0.0
11:23:37,634241.0,0.0,0.0
11:23:37,632860.0,0.0,0.0
11:23:37,634893.0,0.0,0.0
11:23:37,633007.0,0.0,0.0
11:23:37,633987.0,0.0,0.0
11:23:37,634259.0,0.0,0.0
11:23:37,632813.0,0.0,0.0
11:23:37,634819.0,0.0,0.0
11:23:37,632949.0,0.0,0.0
11:23:37,633943.0,0.0,0.0
11:23:37,634177.0,0.0,0.0
11:23:37,632793.0,0.0,0.0
11:23:37,634789.0,0.0,0.0
11:23:37,632940.0,0.0,0.0
11:23:37,633956.0,0.0,0.0
11:23:37,634136.0,0.0,0.0
11:23:37,632763.0,0.0,0.0
11:23:37,634779.0,0.0,0.0
11:23:37,632895.0,0.0,0.0
11:23:37,633938.0,0.0,0.0
11:23:37,634143.0,0.0,0.0
11:23:37,632771.0,0.0,0.0
11:23:37,634809.0,0.0,0.0
11:23:37,632894.0,0.0,0.0
11:23:37,633938.0,0.0,0.0
11:23:37,634127.0,0.0,0.0
11:23:37,632806.0,0.0,0.0
11:23:37,634798.0,0.0,0.0
11:23:37,632868.0,0.0,0.0
11:23:37,633957.0,0.0,0.0
11:23:37,634124.0,0.0,0.0
11:23:37,632785.0,0.0,0.0
11:23:37,634786.0,0.0,0.0
11:23:37,632844.0,0.0,0.0
11:23:37,633925.0,0.0,0.0
11:23:37,634094.0,0.0,0.0
11:23:37,632809.0,0.0,0.0
11:23:37,634806.0,0.0,0.0
11:23:37,632857.0,0.0,0.0
11:23:37,633987.0,0.0,0.0
11:23:37,634100.0,0.0,0.0
11:23:37,632789.0,0.0,0.0
11:23:37,634787.0,0.0,0.0
11:23:37,632843.0,0.0,0.0
11:23:37,633974.0,0.0,0.0
11:23:37,634088.0,0.0,0.0
11:23:37,632792.0,0.0,0.0
11:23:37,634784.0,0.0,0.0
11:23:37,632848.0,0.0,0.0
11:23:37,633991.0,0.0,0.0
11:23:37,634096.0,0.0,0.0
11:23:37,632804.0,0.0,0.0
11:23:37,634791.0,0.0,0.0
11:23:37,632806.0,0.0,0.0
11:23:37,633956.0,0.0,0.0
11:23:37,634060.0,0.0,0.0
11:23:37,632803.0,0.0,0.0
11:23:37,634811.0,0.0,0.0
11:23:37,632812.0,0.0,0.0
11:23:37,633988.0,0.0,0.0
11:23:37,634038.0,0.0,0.0
11:23:37,632775.0,0.0,0.0
11:23:37,634781.0,0.0,0.0
11:23:37,632792.0,0.0,0.0
11:23:37,634001.0,0.0,0.0
11:23:37,634026.0,0.0,0.0
11:23:37,632775.0,0.0,0.0
11:23:37,634753.0,0.0,0.0
11:23:37,632798.0,0.0,0.0
11:23:38,634016.0,0.0,0.0
11:23:38,634023.0,0.0,0.0
11:23:38,632800.0,0.0,0.0
11:23:38,634768.0,0.0,0.0
11:23:38,632817.0,0.0,0.0
11:23:38,634035.0,0.0,0.0
11:23:38,634036.0,0.0,0.0
11:23:38,632800.0,0.0,0.0
11:23:38,634781.0,0.0,0.0
11:23:38,632787.0,0.0,0.0
11:23:38,634007.0,0.0,0.0
11:23:38,633987.0,0.0,0.0
11:23:38,632786.0,0.0,0.0
11:23:38,634748.0,0.0,0.0
11:23:38,632768.0,0.0,0.0
11:23:38,633957.0,0.0,0.0
11:23:38,633920.0,0.0,0.0
11:23:38,632749.0,0.0,0.0
11:23:38,634718.0,0.0,0.0
11:23:38,632807.0,0.0,0.0
11:23:38,634098.0,0.0,0.0
11:23:38,634001.0,0.0,0.0
11:23:38,632788.0,0.0,0.0
11:23:38,634708.0,0.0,0.0
11:23:38,632726.0,0.0,0.0
11:23:38,633999.0,0.0,0.0
11:23:38,633929.0,0.0,0.0
11:23:38,632776.0,0.0,0.0
11:23:38,634751.0,0.0,0.0
11:23:38,632734.0,0.0,0.0
11:23:38,634014.0,0.0,0.0
11:23:38,633938.0,0.0,0.0
11:23:38,632812.0,0.0,0.0
11:23:38,634723.0,0.0,0.0
11:23:38,632706.0,0.0,0.0
11:23:38,634017.0,0.0,0.0
11:23:38,633859.0,0.0,0.0
11:23:38,632739.0,0.0,0.0
11:23:38,634703.0,0.0,0.0
11:23:38,632636.0,0.0,0.0
11:23:38,633946.0,0.0,0.0
11:23:38,633824.0,0.0,0.0
11:23:38,632711.0,0.0,0.0
11:23:38,634593.0,0.0,0.0
11:23:38,632576.0,0.0,0.0
11:23:38,633913.0,0.0,0.0
11:23:38,633741.0,0.0,0.0
11:23:38,632669.0,0.0,0.0
11:23:38,634593.0,0.0,0.0
11:23:38,632550.0,0.0,0.0
11:23:38,633876.0,0.0,0.0
11:23:38,633726.0,0.0,0.0
11:23:38,632641.0,0.0,0.0
11:23:38,634546.0,0.0,0.0
11:23:38,632504.0,0.0,0.0
11:23:38,633864.0,0.0,0.0
11:23:38,633704.0,0.0,0.0
11:23:38,632643.0,0.0,0.0
11:23:38,634530.0,0.0,0.0
11:23:38,632498.0,0.0,0.0
11:23:38,633887.0,0.0,0.0
11:23:38,633681.0,0.0,0.0
11:23:38,632618.0,0.0,0.0
11:23:38,634514.0,0.0,0.0
11:23:38,632511.0,0.0,0.0
11:23:38,633888.0,0.0,0.0
11:23:38,633644.0,0.0,0.0
11:23:38,632606.0,0.0,0.0
11:23:38,634534.0,0.0,0.0
11:23:38,632513.0,0.0,0.0
11:23:38,633874.0,0.0,0.0
11:23:38,633649.0,0.0,0.0
11:23:38,632642.0,0.0,0.0
11:23:38,634534.0,0.0,0.0
11:23:38,632524.0,0.0,0.0
11:23:38,633914.0,0.0,0.0
11:23:38,633628.0,0.0,0.0
11:23:38,632617.0,0.0,0.0
11:23:38,634508.0,0.0,0.0
11:23:38,632492.0,0.0,0.0
11:23:38,633903.0,0.0,0.0
11:23:38,633651.0,0.0,0.0
11:23:38,632674.0,0.0,0.0
11:23:38,634543.0,0.0,0.0
11:23:38,632521.0,0.0,0.0
11:23:38,633935.0,0.0,0.0
11:23:38,633611.0,0.0,0.0
11:23:38,632669.0,0.0,0.0
11:23:38,634547.0,0.0,0.0
11:23:38,632488.0,0.0,0.0
11:23:38,633931.0,0.0,0.0
11:23:38,633612.0,0.0,0.0
11:23:38,632631.0,0.0,0.0
11:23:38,634496.0,0.0,0.0
11:23:38,632473.0,0.0,0.0
11:23:38,633949.0,0.0,0.0
11:23:38,633606.0,0.0,0.0
11:23:38,632675.0,0.0,0.0
11:23:38,634538.0,0.0,0.0
11:23:38,632482.0,0.0,0.0
11:23:38,633960.0,0.0,0.0
11:23:38,633621.0,0.0,0.0
11:23:38,632695.0,0.0,0.0
11:23:38,634511.0,0.0,0.0
11:23:38,632459.0,0.0,0.0
11:23:38,633944.0,0.0,0.0
11:23:38,633563.0,0.0,0.0
11:23:38,632653.0,0.0,0.0
11:23:38,634493.0,0.0,0.0
11:23:38,632421.0,0.0,0.0
11:23:38,633900.0,0.0,0.0
11:23:38,633523.0,0.0,0.0
11:23:38,632624.0,0.0,0.0
11:23:38,634423.0,0.0,0.0
11:23:38,632347.0,0.0,0.0
11:23:38,633872.0,0.0,0.0
11:23:38,633490.0,0.0,0.0
11:23:38,632606.0,0.0,0.0
11:23:38,634431.0,0.0,0.0
11:23:38,632338.0,0.0,0.0
11:23:38,633838.0,0.0,0.0
11:23:38,633427.0,0.0,0.0
11:23:38,632562.0,0.0,0.0
11:23:38,634375.0,0.0,0.0
11:23:39,632281.0,0.0,0.0
11:23:39,633779.0,0.0,0.0
11:23:39,633389.0,0.0,0.0
11:23:39,632541.0,0.0,0.0
11:23:39,634336.0,0.0,0.0
11:23:39,632288.0,0.0,0.0
11:23:39,633816.0,0.0,0.0
11:23:39,633383.0,0.0,0.0
11:23:39,632528.0,0.0,0.0
11:23:39,634316.0,0.0,0.0
11:23:39,632274.0,0.0,0.0
11:23:39,633809.0,0.0,0.0
11:23:39,633395.0,0.0,0.0
11:23:39,632611.0,0.0,0.0
11:23:39,634364.0,0.0,0.0
11:23:39,632316.0,0.0,0.0
11:23:39,633871.0,0.0,0.0
11:23:39,633417.0,0.0,0.0
11:23:39,632644.0,0.0,0.0
11:23:39,634396.0,0.0,0.0
11:23:39,632344.0,0.0,0.0
11:23:39,633907.0,0.0,0.0
11:23:39,633424.0,0.0,0.0
11:23:39,632671.0,0.0,0.0
11:23:39,634413.0,0.0,0.0
11:23:39,632339.0,0.0,0.0
11:23:39,633916.0,0.0,0.0
11:23:39,633429.0,0.0,0.0
11:23:39,632664.0,0.0,0.0
11:23:39,634411.0,0.0,0.0
11:23:39,632359.0,0.0,0.0
11:23:39,633929.0,0.0,0.0
11:23:39,633446.0,0.0,0.0
11:23:39,632679.0,0.0,0.0
11:23:39,634395.0,0.0,0.0
11:23:39,632336.0,0.0,0.0
11:23:39,633954.0,0.0,0.0
11:23:39,633413.0,0.0,0.0
11:23:39,632700.0,0.0,0.0
11:23:39,634407.0,0.0,0.0
11:23:39,632352.0,0.0,0.0
11:23:39,633945.0,0.0,0.0
11:23:39,633347.0,0.0,0.0
11:23:39,632644.0,0.0,0.0
11:23:39,634455.0,0.0,0.0
11:23:39,632482.0,0.0,0.0
11:23:39,634080.0,0.0,0.0
11:23:39,633457.0,0.0,0.0
11:23:39,632727.0,0.0,0.0
11:23:39,634449.0,0.0,0.0
11:23:39,632416.0,0.0,0.0
11:23:39,634045.0,0.0,0.0
11:23:39,633443.0,0.0,0.0
11:23:39,632769.0,0.0,0.0
11:23:39,634469.0,0.0,0.0
11:23:39,632443.0,0.0,0.0
11:23:39,634081.0,0.0,0.0
11:23:39,633454.0,0.0,0.0
11:23:39,632768.0,0.0,0.0
11:23:39,634456.0,0.0,0.0
11:23:39,632403.0,0.0,0.0
11:23:39,634075.0,0.0,0.0
11:23:39,633456.0,0.0,0.0
11:23:39,632808.0,0.0,0.0
11:23:39,634473.0,0.0,0.0
11:23:39,632388.0,0.0,0.0
11:23:39,634053.0,0.0,0.0
11:23:39,633382.0,0.0,0.0
11:23:39,632757.0,0.0,0.0
11:23:39,634424.0,0.0,0.0
11:23:39,632377.0,0.0,0.0
11:23:39,634064.0,0.0,0.0
11:23:39,633385.0,0.0,0.0
11:23:39,632759.0,0.0,0.0
11:23:39,634420.0,0.0,0.0
11:23:39,632356.0,0.0,0.0
11:23:39,634022.0,0.0,0.0
11:23:39,633344.0,0.0,0.0
11:23:39,632769.0,0.0,0.0
11:23:39,634429.0,0.0,0.0
11:23:39,632349.0,0.0,0.0
11:23:39,634031.0,0.0,0.0
11:23:39,633344.0,0.0,0.0
11:23:39,632768.0,0.0,0.0
11:23:39,634443.0,0.0,0.0
11:23:39,632391.0,0.0,0.0
11:23:39,634078.0,0.0,0.0
11:23:39,633359.0,0.0,0.0
11:23:39,632814.0,0.0,0.0
11:23:39,634434.0,0.0,0.0
11:23:39,632383.0,0.0,0.0
11:23:39,634131.0,0.0,0.0
11:23:39,633398.0,0.0,0.0
11:23:39,632843.0,0.0,0.0
11:23:39,634490.0,0.0,0.0
11:23:39,632396.0,0.0,0.0
11:23:39,634124.0,0.0,0.0
11:23:39,633384.0,0.0,0.0
11:23:39,632851.0,0.0,0.0
11:23:39,634466.0,0.0,0.0
11:23:39,632421.0,0.0,0.0
11:23:39,634139.0,0.0,0.0
11:23:39,633378.0,0.0,0.0
11:23:39,632912.0,0.0,0.0
11:23:39,634516.0,0.0,0.0
11:23:39,632434.0,0.0,0.0
11:23:39,634179.0,0.0,0.0
11:23:39,633439.0,0.0,0.0
11:23:39,632948.0,0.0,0.0
11:23:39,634533.0,0.0,0.0
11:23:39,632463.0,0.0,0.0
11:23:39,634280.0,0.0,0.0
11:23:39,633509.0,0.0,0.0
11:23:39,632987.0,0.0,0.0
11:23:39,634563.0,0.0,0.0
11:23:39,632479.0,0.0,0.0
11:23:39,634249.0,0.0,0.0
11:23:39,633457.0,0.0,0.0
11:23:39,632969.0,0.0,0.0
11:23:39,634563.0,0.0,0.0
11:23:39,632538.0,0.0,0.0
11:23:39,634306.0,0.0,0.0
11:23:39,633498.0,0.0,0.0
11:23:39,633051.0,0.0,0.0
11:23:39,634613.0,0.0,0.0
11:23:40,632553.0,0.0,0.0
11:23:40,634330.0,0.0,0.0
11:23:40,633520.0,0.0,0.0
11:23:40,633089.0,0.0,0.0
11:23:40,634626.0,0.0,0.0
11:23:40,632619.0,0.0,0.0
11:23:40,634421.0,0.0,0.0
11:23:40,633558.0,0.0,0.0
11:23:40,633165.0,0.0,0.0
11:23:40,634691.0,0.0,0.0
11:23:40,632667.0,0.0,0.0
11:23:40,634460.0,0.0,0.0
11:23:40,633592.0,0.0,0.0
11:23:40,633206.0,0.0,0.0
11:23:40,634738.0,0.0,0.0
11:23:40,632679.0,0.0,0.0
11:23:40,634468.0,0.0,0.0
11:23:40,633618.0,0.0,0.0
11:23:40,633263.0,0.0,0.0
11:23:40,634793.0,0.0,0.0
11:23:40,632769.0,0.0,0.0
11:23:40,634597.0,0.0,0.0
11:23:40,633689.0,0.0,0.0
11:23:40,633316.0,0.0,0.0
11:23:40,634825.0,0.0,0.0
11:23:40,632780.0,0.0,0.0
11:23:40,634608.0,0.0,0.0
11:23:40,633724.0,0.0,0.0
11:23:40,633362.0,0.0,0.0
11:23:40,634866.0,0.0,0.0
11:23:40,632831.0,0.0,0.0
11:23:40,634651.0,0.0,0.0
11:23:40,633743.0,0.0,0.0
11:23:40,633446.0,0.0,0.0
11:23:40,634901.0,0.0,0.0
11:23:40,632874.0,0.0,0.0
11:23:40,634719.0,0.0,0.0
11:23:40,633792.0,0.0,0.0
11:23:40,633476.0,0.0,0.0
11:23:40,634922.0,0.0,0.0
11:23:40,632891.0,0.0,0.0
11:23:40,634731.0,0.0,0.0
11:23:40,633797.0,0.0,0.0
11:23:40,633501.0,0.0,0.0
11:23:40,634939.0,0.0,0.0
11:23:40,632898.0,0.0,0.0
11:23:40,634766.0,0.0,0.0
11:23:40,633835.0,0.0,0.0
11:23:40,633556.0,0.0,0.0
11:23:40,634997.0,0.0,0.0
11:23:40,632959.0,0.0,0.0
11:23:40,634780.0,0.0,0.0
11:23:40,633816.0,0.0,0.0
11:23:40,633559.0,0.0,0.0
11:23:40,634986.0,0.0,0.0
11:23:40,632989.0,0.0,0.0
11:23:40,634856.0,0.0,0.0
11:23:40,633859.0,0.0,0.0
11:23:40,633638.0,0.0,0.0
11:23:40,635053.0,0.0,0.0
11:23:40,633044.0,0.0,0.0
11:23:40,634892.0,0.0,0.0
11:23:40,633859.0,0.0,0.0
11:23:40,633598.0,0.0,0.0
11:23:40,634964.0,0.0,0.0
11:23:40,633034.0,0.0,0.0
11:23:40,635001.0,0.0,0.0
11:23:40,633970.0,0.0,0.0
11:23:40,633721.0,0.0,0.0
11:23:40,635078.0,0.0,0.0
11:23:40,633063.0,0.0,0.0
11:23:40,634968.0,0.0,0.0
11:23:40,633914.0,0.0,0.0
11:23:40,633714.0,0.0,0.0
11:23:40,635113.0,0.0,0.0
11:23:40,633116.0,0.0,0.0
11:23:40,634986.0,0.0,0.0
11:23:40,633933.0,0.0,0.0
11:23:40,633745.0,0.0,0.0
11:23:40,635081.0,0.0,0.0
11:23:40,633064.0,0.0,0.0
11:23:40,634934.0,0.0,0.0
11:23:40,633861.0,0.0,0.0
11:23:40,633708.0,0.0,0.0
11:23:40,635013.0,0.0,0.0
11:23:40,633028.0,0.0,0.0
11:23:40,634944.0,0.0,0.0
11:23:40,633851.0,0.0,0.0
11:23:40,633687.0,0.0,0.0
11:23:40,634979.0,0.0,0.0
11:23:40,632975.0,0.0,0.0
11:23:40,634899.0,0.0,0.0
11:23:40,633773.0,0.0,0.0
11:23:40,633639.0,0.0,0.0
11:23:40,634977.0,0.0,0.0
11:23:40,632983.0,0.0,0.0
11:23:40,634859.0,0.0,0.0
11:23:40,633733.0,0.0,0.0
11:23:40,633646.0,0.0,0.0
11:23:40,634949.0,0.0,0.0
11:23:40,632962.0,0.0,0.0
11:23:40,634891.0,0.0,0.0
11:23:40,633747.0,0.0,0.0
11:23:40,633660.0,0.0,0.0
11:23:40,634936.0,0.0,0.0
11:23:40,632951.0,0.0,0.0
11:23:40,634876.0,0.0,0.0
11:23:40,633724.0,0.0,0.0
11:23:40,633678.0,0.0,0.0
11:23:40,634924.0,0.0,0.0
11:23:40,632933.0,0.0,0.0
11:23:40,634867.0,0.0,0.0
11:23:40,633718.0,0.0,0.0
11:23:40,633621.0,0.0,0.0
11:23:40,634884.0,0.0,0.0
11:23:40,632919.0,0.0,0.0
11:23:40,634826.0,0.0,0.0
11:23:40,633669.0,0.0,0.0
11:23:40,633603.0,0.0,0.0
11:23:40,634836.0,0.0,0.0
11:23:40,632895.0,0.0,0.0
11:23:40,634841.0,0.0,0.0
11:23:40,633639.0,0.0,0.0
11:23:40,633607.0,0.0,0.0
11:23:40,634847.0,0.0,0.0
11:23:40,632871.0,0.0,0.0
11:23:41,634822.0,0.0,0.0
11:23:41,633641.0,0.0,0.0
11:23:41,633628.0,0.0,0.0
11:23:41,634832.0,0.0,0.0
11:23:41,632863.0,0.0,0.0
11:23:41,634821.0,0.0,0.0
11:23:41,633603.0,0.0,0.0
11:23:41,633599.0,0.0,0.0
11:23:41,634779.0,0.0,0.0
11:23:41,632839.0,0.0,0.0
11:23:41,634792.0,0.0,0.0
11:23:41,633553.0,0.0,0.0
11:23:41,633586.0,0.0,0.0
11:23:41,634738.0,0.0,0.0
11:23:41,632782.0,0.0,0.0
11:23:41,634758.0,0.0,0.0
11:23:41,633527.0,0.0,0.0
11:23:41,633580.0,0.0,0.0
11:23:41,634724.0,0.0,0.0
11:23:41,632784.0,0.0,0.0
11:23:41,634763.0,0.0,0.0
11:23:41,633518.0,0.0,0.0
11:23:41,633591.0,0.0,0.0
11:23:41,634748.0,0.0,0.0
11:23:41,632820.0,0.0,0.0
11:23:41,634776.0,0.0,0.0
11:23:41,633482.0,0.0,0.0
11:23:41,633589.0,0.0,0.0
11:23:41,634715.0,0.0,0.0
11:23:41,632793.0,0.0,0.0
11:23:41,634773.0,0.0,0.0
11:23:41,633489.0,0.0,0.0
11:23:41,633576.0,0.0,0.0
11:23:41,634694.0,0.0,0.0
11:23:41,632784.0,0.0,0.0
11:23:41,634766.0,0.0,0.0
11:23:41,633456.0,0.0,0.0
11:23:41,633583.0,0.0,0.0
11:23:41,634687.0,0.0,0.0
11:23:41,632769.0,0.0,0.0
11:23:41,634708.0,0.0,0.0
11:23:41,633391.0,0.0,0.0
11:23:41,633544.0,0.0,0.0
11:23:41,634634.0,0.0,0.0
11:23:41,632691.0,0.0,0.0
11:23:41,634696.0,0.0,0.0
11:23:41,633368.0,0.0,0.0
11:23:41,633528.0,0.0,0.0
11:23:41,634661.0,0.0,0.0
11:23:41,632738.0,0.0,0.0
11:23:41,634716.0,0.0,0.0
11:23:41,633369.0,0.0,0.0
11:23:41,633549.0,0.0,0.0
11:23:41,634609.0,0.0,0.0
11:23:41,632706.0,0.0,0.0
11:23:41,634718.0,0.0,0.0
11:23:41,633367.0,0.0,0.0
11:23:41,633553.0,0.0,0.0
11:23:41,634573.0,0.0,0.0
11:23:41,632689.0,0.0,0.0
11:23:41,634711.0,0.0,0.0
11:23:41,633349.0,0.0,0.0
11:23:41,633543.0,0.0,0.0
11:23:41,634580.0,0.0,0.0
11:23:41,632681.0,0.0,0.0
11:23:41,634701.0,0.0,0.0
11:23:41,633296.0,0.0,0.0
11:23:41,633513.0,0.0,0.0
11:23:41,634539.0,0.0,0.0
11:23:41,632673.0,0.0,0.0
11:23:41,634714.0,0.0,0.0
11:23:41,633271.0,0.0,0.0
11:23:41,633513.0,0.0,0.0
11:23:41,634513.0,0.0,0.0
11:23:41,632647.0,0.0,0.0
11:23:41,634683.0,0.0,0.0
11:23:41,633258.0,0.0,0.0
11:23:41,633497.0,0.0,0.0
11:23:41,634504.0,0.0,0.0
11:23:41,632676.0,0.0,0.0
11:23:41,634693.0,0.0,0.0
11:23:41,633269.0,0.0,0.0
11:23:41,633544.0,0.0,0.0
11:23:41,634530.0,0.0,0.0
11:23:41,632625.0,0.0,0.0
11:23:41,634610.0,0.0,0.0
11:23:41,633204.0,0.0,0.0
11:23:41,633553.0,0.0,0.0
11:23:41,634565.0,0.0,0.0
11:23:41,632691.0,0.0,0.0
11:23:41,634688.0,0.0,0.0
11:23:41,633239.0,0.0,0.0
11:23:41,633529.0,0.0,0.0
11:23:41,634489.0,0.0,0.0
11:23:41,632637.0,0.0,0.0
11:23:41,634683.0,0.0,0.0
11:23:41,633217.0,0.0,0.0
11:23:41,633509.0,0.0,0.0
11:23:41,634448.0,0.0,0.0
11:23:41,632641.0,0.0,0.0
11:23:41,634673.0,0.0,0.0
11:23:41,633175.0,0.0,0.0
11:23:41,633519.0,0.0,0.0
11:23:41,634439.0,0.0,0.0
11:23:41,632629.0,0.0,0.0
11:23:41,634582.0,0.0,0.0
11:23:41,633131.0,0.0,0.0
11:23:41,633444.0,0.0,0.0
11:23:41,634304.0,0.0,0.0
11:23:41,632576.0,0.0,0.0
11:23:41,634509.0,0.0,0.0
11:23:41,633076.0,0.0,0.0
11:23:41,633436.0,0.0,0.0
11:23:41,634219.0,0.0,0.0
11:23:41,632545.0,0.0,0.0
11:23:41,634460.0,0.0,0.0
11:23:41,632977.0,0.0,0.0
11:23:41,633415.0,0.0,0.0
11:23:41,634236.0,0.0,0.0
11:23:41,632507.0,0.0,0.0
11:23:41,634512.0,0.0,0.0
11:23:41,632984.0,0.0,0.0
11:23:41,633383.0,0.0,0.0
11:23:41,634213.0,0.0,0.0
11:23:41,632481.0,0.0,0.0
11:23:42,634455.0,0.0,0.0
11:23:42,632947.0,0.0,0.0
11:23:42,633397.0,0.0,0.0
11:23:42,634188.0,0.0,0.0
11:23:42,632473.0,0.0,0.0
11:23:42,634469.0,0.0,0.0
11:23:42,632923.0,0.0,0.0
11:23:42,633398.0,0.0,0.0
11:23:42,634171.0,0.0,0.0
11:23:42,632464.0,0.0,0.0
11:23:42,634483.0,0.0,0.0
11:23:42,632939.0,0.0,0.0
11:23:42,633433.0,0.0,0.0
11:23:42,634169.0,0.0,0.0
11:23:42,632436.0,0.0,0.0
11:23:42,634484.0,0.0,0.0
11:23:42,632900.0,0.0,0.0
11:23:42,633396.0,0.0,0.0
11:23:42,634171.0,0.0,0.0
11:23:42,632438.0,0.0,0.0
11:23:42,634506.0,0.0,0.0
11:23:42,632928.0,0.0,0.0
11:23:42,633419.0,0.0,0.0
11:23:42,634178.0,0.0,0.0
11:23:42,632446.0,0.0,0.0
11:23:42,634490.0,0.0,0.0
11:23:42,632873.0,0.0,0.0
11:23:42,633421.0,0.0,0.0
11:23:42,634163.0,0.0,0.0
11:23:42,632413.0,0.0,0.0
11:23:42,634472.0,0.0,0.0
11:23:42,632896.0,0.0,0.0
11:23:42,633424.0,0.0,0.0
11:23:42,634134.0,0.0,0.0
11:23:42,632394.0,0.0,0.0
11:23:42,634453.0,0.0,0.0
11:23:42,632845.0,0.0,0.0
11:23:42,633377.0,0.0,0.0
11:23:42,634081.0,0.0,0.0
11:23:42,632390.0,0.0,0.0
11:23:42,634449.0,0.0,0.0
11:23:42,632839.0,0.0,0.0
11:23:42,633429.0,0.0,0.0
11:23:42,634113.0,0.0,0.0
11:23:42,632411.0,0.0,0.0
11:23:42,634466.0,0.0,0.0
11:23:42,632839.0,0.0,0.0
11:23:42,633413.0,0.0,0.0
11:23:42,634060.0,0.0,0.0
11:23:42,632403.0,0.0,0.0
11:23:42,634443.0,0.0,0.0
11:23:42,632784.0,0.0,0.0
11:23:42,633422.0,0.0,0.0
11:23:42,634061.0,0.0,0.0
11:23:42,632389.0,0.0,0.0
11:23:42,634434.0,0.0,0.0
11:23:42,632769.0,0.0,0.0
11:23:42,633396.0,0.0,0.0
11:23:42,634021.0,0.0,0.0
11:23:42,632352.0,0.0,0.0
11:23:42,634424.0,0.0,0.0
11:23:42,632761.0,0.0,0.0
11:23:42,633416.0,0.0,0.0
11:23:42,634057.0,0.0,0.0
11:23:42,632383.0,0.0,0.0
11:23:42,634418.0,0.0,0.0
11:23:42,632757.0,0.0,0.0
11:23:42,633413.0,0.0,0.0
11:23:42,634001.0,0.0,0.0
11:23:42,632364.0,0.0,0.0
11:23:42,634434.0,0.0,0.0
11:23:42,632736.0,0.0,0.0
11:23:42,633413.0,0.0,0.0
11:23:42,633989.0,0.0,0.0
11:23:42,632359.0,0.0,0.0
11:23:42,634453.0,0.0,0.0
11:23:42,632734.0,0.0,0.0
11:23:42,633438.0,0.0,0.0
11:23:42,634032.0,0.0,0.0
11:23:42,632382.0,0.0,0.0
11:23:42,634432.0,0.0,0.0
11:23:42,632721.0,0.0,0.0
11:23:42,633454.0,0.0,0.0
11:23:42,634011.0,0.0,0.0
11:23:42,632368.0,0.0,0.0
11:23:42,634423.0,0.0,0.0
11:23:42,632702.0,0.0,0.0
11:23:42,633441.0,0.0,0.0
11:23:42,633969.0,0.0,0.0
11:23:42,632387.0,0.0,0.0
11:23:42,634458.0,0.0,0.0
11:23:42,632719.0,0.0,0.0
11:23:42,633474.0,0.0,0.0
11:23:42,633978.0,0.0,0.0
11:23:42,632387.0,0.0,0.0
11:23:42,634466.0,0.0,0.0
11:23:42,632723.0,0.0,0.0
11:23:42,633473.0,0.0,0.0
11:23:42,633984.0,0.0,0.0
11:23:42,632417.0,0.0,0.0
11:23:42,634498.0,0.0,0.0
11:23:42,632707.0,0.0,0.0
11:23:42,633498.0,0.0,0.0
11:23:42,634003.0,0.0,0.0
11:23:42,632436.0,0.0,0.0
11:23:42,634517.0,0.0,0.0
11:23:42,632754.0,0.0,0.0
11:23:42,633551.0,0.0,0.0
11:23:42,633988.0,0.0,0.0
11:23:42,632473.0,0.0,0.0
11:23:42,634513.0,0.0,0.0
11:23:42,632738.0,0.0,0.0
11:23:42,633548.0,0.0,0.0
11:23:42,634011.0,0.0,0.0
11:23:42,632529.0,0.0,0.0
11:23:42,634644.0,0.0,0.0
11:23:42,632848.0,0.0,0.0
11:23:42,633659.0,0.0,0.0
11:23:42,634061.0,0.0,0.0
11:23:42,632523.0,0.0,0.0
11:23:42,634596.0,0.0,0.0
11:23:42,632814.0,0.0,0.0
11:23:42,633661.0,0.0,0.0
11:23:42,634037.0,0.0,0.0
11:23:43,632529.0,0.0,0.0
11:23:43,634584.0,0.0,0.0
11:23:43,632779.0,0.0,0.0
11:23:43,633632.0,0.0,0.0
11:23:43,634045.0,0.0,0.0
11:23:43,632539.0,0.0,0.0
11:23:43,634569.0,0.0,0.0
11:23:43,632763.0,0.0,0.0
11:23:43,633634.0,0.0,0.0
11:23:43,634034.0,0.0,0.0
11:23:43,632520.0,0.0,0.0
11:23:43,634549.0,0.0,0.0
11:23:43,632715.0,0.0,0.0
11:23:43,633603.0,0.0,0.0
11:23:43,633957.0,0.0,0.0
11:23:43,632479.0,0.0,0.0
11:23:43,634519.0,0.0,0.0
11:23:43,632680.0,0.0,0.0
11:23:43,633557.0,0.0,0.0
11:23:43,633908.0,0.0,0.0
11:23:43,632456.0,0.0,0.0
11:23:43,634471.0,0.0,0.0
11:23:43,632647.0,0.0,0.0
11:23:43,633587.0,0.0,0.0
11:23:43,633908.0,0.0,0.0
11:23:43,632446.0,0.0,0.0
11:23:43,634470.0,0.0,0.0
11:23:43,632616.0,0.0,0.0
11:23:43,633581.0,0.0,0.0
11:23:43,633905.0,0.0,0.0
11:23:43,632457.0,0.0,0.0
11:23:43,634444.0,0.0,0.0
11:23:43,632623.0,0.0,0.0
11:23:43,633610.0,0.0,0.0
11:23:43,633901.0,0.0,0.0
11:23:43,632486.0,0.0,0.0
11:23:43,634494.0,0.0,0.0
11:23:43,632656.0,0.0,0.0
11:23:43,633624.0,0.0,0.0
11:23:43,633909.0,0.0,0.0
11:23:43,632518.0,0.0,0.0
11:23:43,634543.0,0.0,0.0
11:23:43,632698.0,0.0,0.0
11:23:43,633698.0,0.0,0.0
11:23:43,633922.0,0.0,0.0
11:23:43,632523.0,0.0,0.0
11:23:43,634548.0,0.0,0.0
11:23:43,632680.0,0.0,0.0
11:23:43,633673.0,0.0,0.0
11:23:43,633895.0,0.0,0.0
11:23:43,632529.0,0.0,0.0
11:23:43,634556.0,0.0,0.0
11:23:43,632698.0,0.0,0.0
11:23:43,633719.0,0.0,0.0
11:23:43,633919.0,0.0,0.0
11:23:43,632546.0,0.0,0.0
11:23:43,634573.0,0.0,0.0
11:23:43,632715.0,0.0,0.0
11:23:43,633741.0,0.0,0.0
11:23:43,633934.0,0.0,0.0
11:23:43,632578.0,0.0,0.0
11:23:43,634585.0,0.0,0.0
11:23:43,632696.0,0.0,0.0
11:23:43,633777.0,0.0,0.0
11:23:43,633951.0,0.0,0.0
11:23:43,632609.0,0.0,0.0
11:23:43,634620.0,0.0,0.0
11:23:43,632737.0,0.0,0.0
11:23:43,633798.0,0.0,0.0
11:23:43,633970.0,0.0,0.0
11:23:43,632629.0,0.0,0.0
11:23:43,634645.0,0.0,0.0
11:23:43,632751.0,0.0,0.0
11:23:43,633830.0,0.0,0.0
11:23:43,633969.0,0.0,0.0
11:23:43,632655.0,0.0,0.0
11:23:43,634653.0,0.0,0.0
11:23:43,632749.0,0.0,0.0
11:23:43,633876.0,0.0,0.0
11:23:43,634008.0,0.0,0.0
11:23:43,632684.0,0.0,0.0
11:23:43,634683.0,0.0,0.0
11:23:43,632780.0,0.0,0.0
11:23:43,633883.0,0.0,0.0
11:23:43,633990.0,0.0,0.0
11:23:43,632701.0,0.0,0.0
11:23:43,634697.0,0.0,0.0
11:23:43,632789.0,0.0,0.0
11:23:43,633913.0,0.0,0.0
11:23:43,634014.0,0.0,0.0
11:23:43,632741.0,0.0,0.0
11:23:43,634715.0,0.0,0.0
11:23:43,632789.0,0.0,0.0
11:23:43,633933.0,0.0,0.0
11:23:43,634017.0,0.0,0.0
11:23:43,632744.0,0.0,0.0
11:23:43,634721.0,0.0,0.0
11:23:43,632816.0,0.0,0.0
11:23:43,633969.0,0.0,0.0
11:23:43,634013.0,0.0,0.0
11:23:43,632774.0,0.0,0.0
11:23:43,634726.0,0.0,0.0
11:23:43,632788.0,0.0,0.0
11:23:43,633966.0,0.0,0.0
11:23:43,633963.0,0.0,0.0
11:23:43,632762.0,0.0,0.0
11:23:43,634725.0,0.0,0.0
11:23:43,632806.0,0.0,0.0
11:23:43,633993.0,0.0,0.0
11:23:43,633996.0,0.0,0.0
11:23:43,632792.0,0.0,0.0
11:23:43,634766.0,0.0,0.0
11:23:43,632803.0,0.0,0.0
11:23:43,634025.0,0.0,0.0
11:23:43,634011.0,0.0,0.0
11:23:43,632826.0,0.0,0.0
11:23:43,634774.0,0.0,0.0
11:23:43,632811.0,0.0,0.0
11:23:43,634034.0,0.0,0.0
11:23:43,634020.0,0.0,0.0
11:23:43,632867.0,0.0,0.0
11:23:43,634809.0,0.0,0.0
11:23:43,632830.0,0.0,0.0
11:23:43,634044.0,0.0,0.0
11:23:43,634016.0,0.0,0.0
11:23:44,632878.0,0.0,0.0
11:23:44,634819.0,0.0,0.0
11:23:44,632808.0,0.0,0.0
11:23:44,634053.0,0.0,0.0
11:23:44,633998.0,0.0,0.0
11:23:44,632851.0,0.0,0.0
11:23:44,634798.0,0.0,0.0
11:23:44,632833.0,0.0,0.0
11:23:44,634074.0,0.0,0.0
11:23:44,633986.0,0.0,0.0
11:23:44,632838.0,0.0,0.0
11:23:44,634743.0,0.0,0.0
11:23:44,632824.0,0.0,0.0
11:23:44,634177.0,0.0,0.0
11:23:44,634078.0,0.0,0.0
11:23:44,632957.0,0.0,0.0
11:23:44,634839.0,0.0,0.0
11:23:44,632838.0,0.0,0.0
11:23:44,634107.0,0.0,0.0
11:23:44,633999.0,0.0,0.0
11:23:44,632899.0,0.0,0.0
11:23:44,634809.0,0.0,0.0
11:23:44,632854.0,0.0,0.0
11:23:44,634145.0,0.0,0.0
11:23:44,633993.0,0.0,0.0
11:23:44,632959.0,0.0,0.0
11:23:44,634876.0,0.0,0.0
11:23:44,632864.0,0.0,0.0
11:23:44,634152.0,0.0,0.0
11:23:44,633974.0,0.0,0.0
11:23:44,632909.0,0.0,0.0
11:23:44,634778.0,0.0,0.0
11:23:44,632778.0,0.0,0.0
11:23:44,634081.0,0.0,0.0
11:23:44,633916.0,0.0,0.0
11:23:44,632876.0,0.0,0.0
11:23:44,634774.0,0.0,0.0
11:23:44,632766.0,0.0,0.0
11:23:44,634094.0,0.0,0.0
11:23:44,633887.0,0.0,0.0
11:23:44,632827.0,0.0,0.0
11:23:44,634702.0,0.0,0.0
11:23:44,632694.0,0.0,0.0
11:23:44,634045.0,0.0,0.0
11:23:44,633828.0,0.0,0.0
11:23:44,632833.0,0.0,0.0
11:23:44,634721.0,0.0,0.0
11:23:44,632681.0,0.0,0.0
11:23:44,634035.0,0.0,0.0
11:23:44,633798.0,0.0,0.0
11:23:44,632803.0,0.0,0.0
11:23:44,634672.0,0.0,0.0
11:23:44,632656.0,0.0,0.0
11:23:44,634044.0,0.0,0.0
11:23:44,633800.0,0.0,0.0
11:23:44,632779.0,0.0,0.0
11:23:44,634641.0,0.0,0.0
11:23:44,632637.0,0.0,0.0
11:23:44,634012.0,0.0,0.0
11:23:44,633771.0,0.0,0.0
11:23:44,632798.0,0.0,0.0
11:23:44,634606.0,0.0,0.0
11:23:44,632598.0,0.0,0.0
11:23:44,634015.0,0.0,0.0
11:23:44,633734.0,0.0,0.0
11:23:44,632783.0,0.0,0.0
11:23:44,634629.0,0.0,0.0
11:23:44,632594.0,0.0,0.0
11:23:44,634049.0,0.0,0.0
11:23:44,633743.0,0.0,0.0
11:23:44,632801.0,0.0,0.0
11:23:44,634648.0,0.0,0.0
11:23:44,632628.0,0.0,0.0
11:23:44,634075.0,0.0,0.0
11:23:44,633723.0,0.0,0.0
11:23:44,632780.0,0.0,0.0
11:23:44,634608.0,0.0,0.0
11:23:44,632571.0,0.0,0.0
11:23:44,634021.0,0.0,0.0
11:23:44,633668.0,0.0,0.0
11:23:44,632753.0,0.0,0.0
11:23:44,634568.0,0.0,0.0
11:23:44,632561.0,0.0,0.0
11:23:44,634015.0,0.0,0.0
11:23:44,633632.0,0.0,0.0
11:23:44,632728.0,0.0,0.0
11:23:44,634583.0,0.0,0.0
11:23:44,632531.0,0.0,0.0
11:23:44,634011.0,0.0,0.0
11:23:44,633606.0,0.0,0.0
11:23:44,632709.0,0.0,0.0
11:23:44,634534.0,0.0,0.0
11:23:44,632520.0,0.0,0.0
11:23:44,634001.0,0.0,0.0
11:23:44,633594.0,0.0,0.0
11:23:44,632752.0,0.0,0.0
11:23:44,634554.0,0.0,0.0
11:23:44,632500.0,0.0,0.0
11:23:44,633992.0,0.0,0.0
11:23:44,633568.0,0.0,0.0
11:23:44,632746.0,0.0,0.0
11:23:44,634522.0,0.0,0.0
11:23:44,632499.0,0.0,0.0
11:23:44,633994.0,0.0,0.0
11:23:44,633573.0,0.0,0.0
11:23:44,632742.0,0.0,0.0
11:23:44,634528.0,0.0,0.0
11:23:44,632503.0,0.0,0.0
11:23:44,634031.0,0.0,0.0
11:23:44,633594.0,0.0,0.0
11:23:44,632764.0,0.0,0.0
11:23:44,634554.0,0.0,0.0
11:23:44,632504.0,0.0,0.0
11:23:44,634029.0,0.0,0.0
11:23:44,633576.0,0.0,0.0
11:23:44,632798.0,0.0,0.0
11:23:44,634546.0,0.0,0.0
11:23:44,632498.0,0.0,0.0
11:23:44,634037.0,0.0,0.0
11:23:44,633516.0,0.0,0.0
11:23:44,632762.0,0.0,0.0
11:23:44,634523.0,0.0,0.0
11:23:44,632473.0,0.0,0.0
11:23:44,634038.0,0.0,0.0
11:23:44,633516.0,0.0,0.0
11:23:45,632759.0,0.0,0.0
11:23:45,634475.0,0.0,0.0
11:23:45,632479.0,0.0,0.0
11:23:45,634053.0,0.0,0.0
11:23:45,633522.0,0.0,0.0
11:23:45,632763.0,0.0,0.0
11:23:45,634465.0,0.0,0.0
11:23:45,632470.0,0.0,0.0
11:23:45,634041.0,0.0,0.0
11:23:45,633494.0,0.0,0.0
11:23:45,632766.0,0.0,0.0
11:23:45,634442.0,0.0,0.0
11:23:45,632449.0,0.0,0.0
11:23:45,633993.0,0.0,0.0
11:23:45,633472.0,0.0,0.0
11:23:45,632766.0,0.0,0.0
11:23:45,634447.0,0.0,0.0
11:23:45,632425.0,0.0,0.0
11:23:45,634002.0,0.0,0.0
11:23:45,633445.0,0.0,0.0
11:23:45,632788.0,0.0,0.0
11:23:45,634429.0,0.0,0.0
11:23:45,632408.0,0.0,0.0
11:23:45,634008.0,0.0,0.0
11:23:45,633382.0,0.0,0.0
11:23:45,632760.0,0.0,0.0
11:23:45,634428.0,0.0,0.0
11:23:45,632363.0,0.0,0.0
11:23:45,634003.0,0.0,0.0
11:23:45,633411.0,0.0,0.0
11:23:45,632731.0,0.0,0.0
11:23:45,634429.0,0.0,0.0
11:23:45,632346.0,0.0,0.0
11:23:45,633966.0,0.0,0.0
11:23:45,633339.0,0.0,0.0
11:23:45,632768.0,0.0,0.0
11:23:45,634511.0,0.0,0.0
11:23:45,632396.0,0.0,0.0
11:23:45,633992.0,0.0,0.0
11:23:45,633327.0,0.0,0.0
11:23:45,632724.0,0.0,0.0
11:23:45,634414.0,0.0,0.0
11:23:45,632337.0,0.0,0.0
11:23:45,634021.0,0.0,0.0
11:23:45,633348.0,0.0,0.0
11:23:45,632750.0,0.0,0.0
11:23:45,634406.0,0.0,0.0
11:23:45,632303.0,0.0,0.0
11:23:45,634000.0,0.0,0.0
11:23:45,633334.0,0.0,0.0
11:23:45,632741.0,0.0,0.0
11:23:45,634342.0,0.0,0.0
11:23:45,632279.0,0.0,0.0
11:23:45,633996.0,0.0,0.0
11:23:45,633293.0,0.0,0.0
11:23:45,632699.0,0.0,0.0
11:23:45,634265.0,0.0,0.0
11:23:45,632181.0,0.0,0.0
11:23:45,633912.0,0.0,0.0
11:23:45,633188.0,0.0,0.0
11:23:45,632617.0,0.0,0.0
11:23:45,634201.0,0.0,0.0
11:23:45,632159.0,0.0,0.0
11:23:45,633876.0,0.0,0.0
11:23:45,633136.0,0.0,0.0
11:23:45,632563.0,0.0,0.0
11:23:45,634144.0,0.0,0.0
11:23:45,632116.0,0.0,0.0
11:23:45,633854.0,0.0,0.0
11:23:45,633092.0,0.0,0.0
11:23:45,632587.0,0.0,0.0
11:23:45,634192.0,0.0,0.0
11:23:45,632113.0,0.0,0.0
11:23:45,633831.0,0.0,0.0
11:23:45,633089.0,0.0,0.0
11:23:45,632583.0,0.0,0.0
11:23:45,634168.0,0.0,0.0
11:23:45,632108.0,0.0,0.0
11:23:45,633849.0,0.0,0.0
11:23:45,633078.0,0.0,0.0
11:23:45,632589.0,0.0,0.0
11:23:45,634149.0,0.0,0.0
11:23:45,632091.0,0.0,0.0
11:23:45,633850.0,0.0,0.0
11:23:45,633043.0,0.0,0.0
11:23:45,632591.0,0.0,0.0
11:23:45,634118.0,0.0,0.0
11:23:45,632084.0,0.0,0.0
11:23:45,633836.0,0.0,0.0
11:23:45,633043.0,0.0,0.0
11:23:45,632581.0,0.0,0.0
11:23:45,634139.0,0.0,0.0
11:23:45,632080.0,0.0,0.0
11:23:45,633852.0,0.0,0.0
11:23:45,633029.0,0.0,0.0
11:23:45,632581.0,0.0,0.0
11:23:45,634149.0,0.0,0.0
11:23:45,632106.0,0.0,0.0
11:23:45,633880.0,0.0,0.0
11:23:45,633041.0,0.0,0.0
11:23:45,632605.0,0.0,0.0
11:23:45,634103.0,0.0,0.0
11:23:45,632039.0,0.0,0.0
11:23:45,633868.0,0.0,0.0
11:23:45,633003.0,0.0,0.0
11:23:45,632627.0,0.0,0.0
11:23:45,634096.0,0.0,0.0
11:23:45,632044.0,0.0,0.0
11:23:45,633873.0,0.0,0.0
11:23:45,632996.0,0.0,0.0
11:23:45,632608.0,0.0,0.0
11:23:45,634072.0,0.0,0.0
11:23:45,632011.0,0.0,0.0
11:23:45,633853.0,0.0,0.0
11:23:45,632979.0,0.0,0.0
11:23:45,632636.0,0.0,0.0
11:23:45,634086.0,0.0,0.0
11:23:45,632063.0,0.0,0.0
11:23:45,633876.0,0.0,0.0
11:23:45,632939.0,0.0,0.0
11:23:45,632629.0,0.0,0.0
11:23:45,634109.0,0.0,0.0
11:23:45,632054.0,0.0,0.0
11:23:45,633889.0,0.0,0.0
11:23:45,632939.0,0.0,0.0
11:23:46,632631.0,0.0,0.0
11:23:46,634089.0,0.0,0.0
11:23:46,632070.0,0.0,0.0
11:23:46,633911.0,0.0,0.0
11:23:46,632956.0,0.0,0.0
11:23:46,632645.0,0.0,0.0
11:23:46,634079.0,0.0,0.0
11:23:46,632044.0,0.0,0.0
11:23:46,633894.0,0.0,0.0
11:23:46,632913.0,0.0,0.0
11:23:46,632651.0,0.0,0.0
11:23:46,634067.0,0.0,0.0
11:23:46,632035.0,0.0,0.0
11:23:46,633868.0,0.0,0.0
11:23:46,632898.0,0.0,0.0
11:23:46,632637.0,0.0,0.0
11:23:46,634055.0,0.0,0.0
11:23:46,632039.0,0.0,0.0
11:23:46,633889.0,0.0,0.0
11:23:46,632900.0,0.0,0.0
11:23:46,632663.0,0.0,0.0
11:23:46,634066.0,0.0,0.0
11:23:46,632029.0,0.0,0.0
11:23:46,633919.0,0.0,0.0
11:23:46,632891.0,0.0,0.0
11:23:46,632684.0,0.0,0.0
11:23:46,634068.0,0.0,0.0
11:23:46,632007.0,0.0,0.0
11:23:46,633880.0,0.0,0.0
11:23:46,632850.0,0.0,0.0
11:23:46,632664.0,0.0,0.0
11:23:46,634053.0,0.0,0.0
11:23:46,632015.0,0.0,0.0
11:23:46,633888.0,0.0,0.0
11:23:46,632836.0,0.0,0.0
11:23:46,632663.0,0.0,0.0
11:23:46,634026.0,0.0,0.0
11:23:46,632021.0,0.0,0.0
11:23:46,633919.0,0.0,0.0
11:23:46,632845.0,0.0,0.0
11:23:46,632687.0,0.0,0.0
11:23:46,634007.0,0.0,0.0
11:23:46,631964.0,0.0,0.0
11:23:46,633892.0,0.0,0.0
11:23:46,632840.0,0.0,0.0
11:23:46,632679.0,0.0,0.0
11:23:46,634006.0,0.0,0.0
11:23:46,632007.0,0.0,0.0
11:23:46,633907.0,0.0,0.0
11:23:46,632818.0,0.0,0.0
11:23:46,632665.0,0.0,0.0
11:23:46,633962.0,0.0,0.0
11:23:46,632014.0,0.0,0.0
11:23:46,633937.0,0.0,0.0
11:23:46,632811.0,0.0,0.0
11:23:46,632673.0,0.0,0.0
11:23:46,633978.0,0.0,0.0
11:23:46,631974.0,0.0,0.0
11:23:46,633878.0,0.0,0.0
11:23:46,632760.0,0.0,0.0
11:23:46,632719.0,0.0,0.0
11:23:46,634067.0,0.0,0.0
11:23:46,632086.0,0.0,0.0
11:23:46,633987.0,0.0,0.0
11:23:46,632789.0,0.0,0.0
11:23:46,632721.0,0.0,0.0
11:23:46,634009.0,0.0,0.0
11:23:46,632041.0,0.0,0.0
11:23:46,633943.0,0.0,0.0
11:23:46,632761.0,0.0,0.0
11:23:46,632725.0,0.0,0.0
11:23:46,634005.0,0.0,0.0
11:23:46,632015.0,0.0,0.0
11:23:46,633951.0,0.0,0.0
11:23:46,632776.0,0.0,0.0
11:23:46,632726.0,0.0,0.0
11:23:46,633969.0,0.0,0.0
11:23:46,632016.0,0.0,0.0
11:23:46,633951.0,0.0,0.0
11:23:46,632741.0,0.0,0.0
11:23:46,632710.0,0.0,0.0
11:23:46,633926.0,0.0,0.0
11:23:46,631981.0,0.0,0.0
11:23:46,633917.0,0.0,0.0
11:23:46,632653.0,0.0,0.0
11:23:46,632639.0,0.0,0.0
11:23:46,633849.0,0.0,0.0
11:23:46,631881.0,0.0,0.0
11:23:46,633869.0,0.0,0.0
11:23:46,632624.0,0.0,0.0
11:23:46,632613.0,0.0,0.0
11:23:46,633818.0,0.0,0.0
11:23:46,631869.0,0.0,0.0
11:23:46,633829.0,0.0,0.0
11:23:46,632559.0,0.0,0.0
11:23:46,632619.0,0.0,0.0
11:23:46,633793.0,0.0,0.0
11:23:46,631846.0,0.0,0.0
11:23:46,633828.0,0.0,0.0
11:23:46,632553.0,0.0,0.0
11:23:46,632638.0,0.0,0.0
11:23:46,633795.0,0.0,0.0
11:23:46,631863.0,0.0,0.0
11:23:46,633859.0,0.0,0.0
11:23:46,632583.0,0.0,0.0
11:23:46,632659.0,0.0,0.0
11:23:46,633838.0,0.0,0.0
11:23:46,631906.0,0.0,0.0
11:23:46,633894.0,0.0,0.0
11:23:46,632628.0,0.0,0.0
11:23:46,632700.0,0.0,0.0
11:23:46,633830.0,0.0,0.0
11:23:46,631909.0,0.0,0.0
11:23:46,633918.0,0.0,0.0
11:23:46,632606.0,0.0,0.0
11:23:46,632733.0,0.0,0.0
11:23:46,633861.0,0.0,0.0
11:23:46,631928.0,0.0,0.0
11:23:46,633948.0,0.0,0.0
11:23:46,632626.0,0.0,0.0
11:23:46,632775.0,0.0,0.0
11:23:46,633872.0,0.0,0.0
11:23:46,631982.0,0.0,0.0
11:23:46,633964.0,0.0,0.0
11:23:46,632612.0,0.0,0.0
11:23:47,632779.0,0.0,0.0
11:23:47,633898.0,0.0,0.0
11:23:47,631977.0,0.0,0.0
11:23:47,633956.0,0.0,0.0
11:23:47,632588.0,0.0,0.0
11:23:47,632791.0,0.0,0.0
11:23:47,633894.0,0.0,0.0
11:23:47,631980.0,0.0,0.0
11:23:47,633984.0,0.0,0.0
11:23:47,632623.0,0.0,0.0
11:23:47,632814.0,0.0,0.0
11:23:47,633874.0,0.0,0.0
11:23:47,631984.0,0.0,0.0
11:23:47,634014.0,0.0,0.0
11:23:47,632627.0,0.0,0.0
11:23:47,632821.0,0.0,0.0
11:23:47,633869.0,0.0,0.0
11:23:47,631983.0,0.0,0.0
11:23:47,634029.0,0.0,0.0
11:23:47,632660.0,0.0,0.0
11:23:47,632894.0,0.0,0.0
11:23:47,633907.0,0.0,0.0
11:23:47,632020.0,0.0,0.0
11:23:47,634039.0,0.0,0.0
11:23:47,632613.0,0.0,0.0
11:23:47,632879.0,0.0,0.0
11:23:47,633881.0,0.0,0.0
11:23:47,632005.0,0.0,0.0
11:23:47,634035.0,0.0,0.0
11:23:47,632634.0,0.0,0.0
11:23:47,632903.0,0.0,0.0
11:23:47,633887.0,0.0,0.0
11:23:47,632027.0,0.0,0.0
11:23:47,634054.0,0.0,0.0
11:23:47,632641.0,0.0,0.0
11:23:47,632936.0,0.0,0.0
11:23:47,633899.0,0.0,0.0
11:23:47,632057.0,0.0,0.0
11:23:47,634098.0,0.0,0.0
11:23:47,632669.0,0.0,0.0
11:23:47,632973.0,0.0,0.0
11:23:47,633954.0,0.0,0.0
11:23:47,632091.0,0.0,0.0
11:23:47,634124.0,0.0,0.0
11:23:47,632666.0,0.0,0.0
11:23:47,633005.0,0.0,0.0
11:23:47,633964.0,0.0,0.0
11:23:47,632084.0,0.0,0.0
11:23:47,634146.0,0.0,0.0
11:23:47,632689.0,0.0,0.0
11:23:47,633001.0,0.0,0.0
11:23:47,633963.0,0.0,0.0
11:23:47,632155.0,0.0,0.0
11:23:47,634189.0,0.0,0.0
11:23:47,632679.0,0.0,0.0
11:23:47,633066.0,0.0,0.0
11:23:47,633981.0,0.0,0.0
11:23:47,632119.0,0.0,0.0
11:23:47,634163.0,0.0,0.0
11:23:47,632719.0,0.0,0.0
11:23:47,633078.0,0.0,0.0
11:23:47,633954.0,0.0,0.0
11:23:47,632140.0,0.0,0.0
11:23:47,634223.0,0.0,0.0
11:23:47,632724.0,0.0,0.0
11:23:47,633108.0,0.0,0.0
11:23:47,633993.0,0.0,0.0
11:23:47,632194.0,0.0,0.0
11:23:47,634229.0,0.0,0.0
11:23:47,632734.0,0.0,0.0
11:23:47,633149.0,0.0,0.0
11:23:47,634041.0,0.0,0.0
11:23:47,632224.0,0.0,0.0
11:23:47,634261.0,0.0,0.0
11:23:47,632743.0,0.0,0.0
11:23:47,633191.0,0.0,0.0
11:23:47,634054.0,0.0,0.0
11:23:47,632225.0,0.0,0.0
11:23:47,634293.0,0.0,0.0
11:23:47,632765.0,0.0,0.0
11:23:47,633173.0,0.0,0.0
11:23:47,633988.0,0.0,0.0
11:23:47,632199.0,0.0,0.0
11:23:47,634238.0,0.0,0.0
11:23:47,632787.0,0.0,0.0
11:23:47,633311.0,0.0,0.0
11:23:47,634114.0,0.0,0.0
11:23:47,632320.0,0.0,0.0
11:23:47,634366.0,0.0,0.0
11:23:47,632796.0,0.0,0.0
11:23:47,633259.0,0.0,0.0
11:23:47,634024.0,0.0,0.0
11:23:47,632296.0,0.0,0.0
11:23:47,634361.0,0.0,0.0
11:23:47,632766.0,0.0,0.0
11:23:47,633284.0,0.0,0.0
11:23:47,634055.0,0.0,0.0
11:23:47,632309.0,0.0,0.0
11:23:47,634349.0,0.0,0.0
11:23:47,632781.0,0.0,0.0
11:23:47,633306.0,0.0,0.0
11:23:47,634033.0,0.0,0.0
11:23:47,632279.0,0.0,0.0
11:23:47,634338.0,0.0,0.0
11:23:47,632745.0,0.0,0.0
11:23:47,633242.0,0.0,0.0
11:23:47,633955.0,0.0,0.0
11:23:47,632253.0,0.0,0.0
11:23:47,634297.0,0.0,0.0
11:23:47,632718.0,0.0,0.0
11:23:47,633286.0,0.0,0.0
11:23:47,633993.0,0.0,0.0
11:23:47,632267.0,0.0,0.0
11:23:47,634306.0,0.0,0.0
11:23:47,632664.0,0.0,0.0
11:23:47,633234.0,0.0,0.0
11:23:47,633913.0,0.0,0.0
11:23:47,632211.0,0.0,0.0
11:23:47,634276.0,0.0,0.0
11:23:47,632653.0,0.0,0.0
11:23:47,633257.0,0.0,0.0
11:23:47,633949.0,0.0,0.0
11:23:47,632279.0,0.0,0.0
11:23:47,634348.0,0.0,0.0
11:23:47,632688.0,0.0,0.0
11:23:48,633292.0,0.0,0.0
11:23:48,633933.0,0.0,0.0
11:23:48,632275.0,0.0,0.0
11:23:48,634378.0,0.0,0.0
11:23:48,632690.0,0.0,0.0
11:23:48,633299.0,0.0,0.0
11:23:48,633964.0,0.0,0.0
11:23:48,632308.0,0.0,0.0
11:23:48,634334.0,0.0,0.0
11:23:48,632648.0,0.0,0.0
11:23:48,633333.0,0.0,0.0
11:23:48,633949.0,0.0,0.0
11:23:48,632306.0,0.0,0.0
11:23:48,634355.0,0.0,0.0
11:23:48,632686.0,0.0,0.0
11:23:48,633326.0,0.0,0.0
11:23:48,633943.0,0.0,0.0
11:23:48,632309.0,0.0,0.0
11:23:48,634385.0,0.0,0.0
11:23:48,632682.0,0.0,0.0
11:23:48,633359.0,0.0,0.0
11:23:48,633949.0,0.0,0.0
11:23:48,632338.0,0.0,0.0
11:23:48,634401.0,0.0,0.0
11:23:48,632681.0,0.0,0.0
11:23:48,633389.0,0.0,0.0
11:23:48,633993.0,0.0,0.0
11:23:48,632346.0,0.0,0.0
11:23:48,634396.0,0.0,0.0
11:23:48,632697.0,0.0,0.0
11:23:48,633421.0,0.0,0.0
11:23:48,634004.0,0.0,0.0
11:23:48,632392.0,0.0,0.0
11:23:48,634459.0,0.0,0.0
11:23:48,632723.0,0.0,0.0
11:23:48,633460.0,0.0,0.0
11:23:48,634016.0,0.0,0.0
11:23:48,632446.0,0.0,0.0
11:23:48,634510.0,0.0,0.0
11:23:48,632787.0,0.0,0.0
11:23:48,633516.0,0.0,0.0
11:23:48,633997.0,0.0,0.0
11:23:48,632414.0,0.0,0.0
11:23:48,634488.0,0.0,0.0
11:23:48,632735.0,0.0,0.0
11:23:48,633500.0,0.0,0.0
11:23:48,634019.0,0.0,0.0
11:23:48,632415.0,0.0,0.0
11:23:48,634479.0,0.0,0.0
11:23:48,632733.0,0.0,0.0
11:23:48,633547.0,0.0,0.0
11:23:48,634046.0,0.0,0.0
11:23:48,632453.0,0.0,0.0
11:23:48,634506.0,0.0,0.0
11:23:48,632785.0,0.0,0.0
11:23:48,633591.0,0.0,0.0
11:23:48,634056.0,0.0,0.0
11:23:48,632527.0,0.0,0.0
11:23:48,634588.0,0.0,0.0
11:23:48,632809.0,0.0,0.0
11:23:48,633623.0,0.0,0.0
11:23:48,634054.0,0.0,0.0
11:23:48,632527.0,0.0,0.0
11:23:48,634584.0,0.0,0.0
11:23:48,632797.0,0.0,0.0
11:23:48,633641.0,0.0,0.0
11:23:48,634078.0,0.0,0.0
11:23:48,632520.0,0.0,0.0
11:23:48,634557.0,0.0,0.0
11:23:48,632788.0,0.0,0.0
11:23:48,633631.0,0.0,0.0
11:23:48,634060.0,0.0,0.0
11:23:48,632544.0,0.0,0.0
11:23:48,634563.0,0.0,0.0
11:23:48,632812.0,0.0,0.0
11:23:48,633702.0,0.0,0.0
11:23:48,634056.0,0.0,0.0
11:23:48,632546.0,0.0,0.0
11:23:48,634590.0,0.0,0.0
11:23:48,632806.0,0.0,0.0
11:23:48,633719.0,0.0,0.0
11:23:48,634104.0,0.0,0.0
11:23:48,632579.0,0.0,0.0
11:23:48,634629.0,0.0,0.0
11:23:48,632798.0,0.0,0.0
11:23:48,633711.0,0.0,0.0
11:23:48,634051.0,0.0,0.0
11:23:48,632612.0,0.0,0.0
11:23:48,634651.0,0.0,0.0
11:23:48,632812.0,0.0,0.0
11:23:48,633738.0,0.0,0.0
11:23:48,634079.0,0.0,0.0
11:23:48,632631.0,0.0,0.0
11:23:48,634678.0,0.0,0.0
11:23:48,632824.0,0.0,0.0
11:23:48,633769.0,0.0,0.0
11:23:48,634060.0,0.0,0.0
11:23:48,632611.0,0.0,0.0
11:23:48,634642.0,0.0,0.0
11:23:48,632797.0,0.0,0.0
11:23:48,633746.0,0.0,0.0
11:23:48,633996.0,0.0,0.0
11:23:48,632553.0,0.0,0.0
11:23:48,634564.0,0.0,0.0
11:23:48,632732.0,0.0,0.0
11:23:48,633814.0,0.0,0.0
11:23:48,634088.0,0.0,0.0
11:23:48,632643.0,0.0,0.0
11:23:48,634641.0,0.0,0.0
11:23:48,632754.0,0.0,0.0
11:23:48,633737.0,0.0,0.0
11:23:48,633979.0,0.0,0.0
11:23:48,632569.0,0.0,0.0
11:23:48,634623.0,0.0,0.0
11:23:48,632738.0,0.0,0.0
11:23:48,633724.0,0.0,0.0
11:23:48,633974.0,0.0,0.0
11:23:48,632577.0,0.0,0.0
11:23:48,634621.0,0.0,0.0
11:23:48,632745.0,0.0,0.0
11:23:48,633734.0,0.0,0.0
11:23:48,633924.0,0.0,0.0
11:23:48,632516.0,0.0,0.0
11:23:48,634511.0,0.0,0.0
11:23:48,632595.0,0.0,0.0
11:23:49,633632.0,0.0,0.0
11:23:49,633844.0,0.0,0.0
11:23:49,632477.0,0.0,0.0
11:23:49,634464.0,0.0,0.0
11:23:49,632558.0,0.0,0.0
11:23:49,633590.0,0.0,0.0
11:23:49,633759.0,0.0,0.0
11:23:49,632399.0,0.0,0.0
11:23:49,634386.0,0.0,0.0
11:23:49,632450.0,0.0,0.0
11:23:49,633533.0,0.0,0.0
11:23:49,633656.0,0.0,0.0
11:23:49,632306.0,0.0,0.0
11:23:49,634316.0,0.0,0.0
11:23:49,632409.0,0.0,0.0
11:23:49,633513.0,0.0,0.0
11:23:49,633646.0,0.0,0.0
11:23:49,632339.0,0.0,0.0
11:23:49,634333.0,0.0,0.0
11:23:49,632401.0,0.0,0.0
11:23:49,633494.0,0.0,0.0
11:23:49,633632.0,0.0,0.0
11:23:49,632348.0,0.0,0.0
11:23:49,634312.0,0.0,0.0
11:23:49,632349.0,0.0,0.0
11:23:49,633488.0,0.0,0.0
11:23:49,633594.0,0.0,0.0
11:23:49,632287.0,0.0,0.0
11:23:49,634285.0,0.0,0.0
11:23:49,632328.0,0.0,0.0
11:23:49,633469.0,0.0,0.0
11:23:49,633521.0,0.0,0.0
11:23:49,632242.0,0.0,0.0
11:23:49,634241.0,0.0,0.0
11:23:49,632274.0,0.0,0.0
11:23:49,633429.0,0.0,0.0
11:23:49,633514.0,0.0,0.0
11:23:49,632252.0,0.0,0.0
11:23:49,634241.0,0.0,0.0
11:23:49,632283.0,0.0,0.0
11:23:49,633466.0,0.0,0.0
11:23:49,633498.0,0.0,0.0
11:23:49,632261.0,0.0,0.0
11:23:49,634229.0,0.0,0.0
11:23:49,632262.0,0.0,0.0
11:23:49,633449.0,0.0,0.0
11:23:49,633456.0,0.0,0.0
11:23:49,632224.0,0.0,0.0
11:23:49,634202.0,0.0,0.0
11:23:49,632226.0,0.0,0.0
11:23:49,633410.0,0.0,0.0
11:23:49,633409.0,0.0,0.0
11:23:49,632228.0,0.0,0.0
11:23:49,634191.0,0.0,0.0
11:23:49,632196.0,0.0,0.0
11:23:49,633410.0,0.0,0.0
11:23:49,633408.0,0.0,0.0
11:23:49,632189.0,0.0,0.0
11:23:49,634160.0,0.0,0.0
11:23:49,632204.0,0.0,0.0
11:23:49,633449.0,0.0,0.0
11:23:49,633413.0,0.0,0.0
11:23:49,632208.0,0.0,0.0
11:23:49,634173.0,0.0,0.0
11:23:49,632166.0,0.0,0.0
11:23:49,633399.0,0.0,0.0
11:23:49,633350.0,0.0,0.0
11:23:49,632178.0,0.0,0.0
11:23:49,634129.0,0.0,0.0
11:23:49,632133.0,0.0,0.0
11:23:49,633406.0,0.0,0.0
11:23:49,633374.0,0.0,0.0
11:23:49,632209.0,0.0,0.0
11:23:49,634149.0,0.0,0.0
11:23:49,632133.0,0.0,0.0
11:23:49,633415.0,0.0,0.0
11:23:49,633324.0,0.0,0.0
11:23:49,632178.0,0.0,0.0
11:23:49,634132.0,0.0,0.0
11:23:49,632117.0,0.0,0.0
11:23:49,633423.0,0.0,0.0
11:23:49,633316.0,0.0,0.0
11:23:49,632211.0,0.0,0.0
11:23:49,634092.0,0.0,0.0
11:23:49,632108.0,0.0,0.0
11:23:49,633354.0,0.0,0.0
11:23:49,633246.0,0.0,0.0
11:23:49,632208.0,0.0,0.0
11:23:49,633994.0,0.0,0.0
11:23:49,632108.0,0.0,0.0
11:23:49,633341.0,0.0,0.0
11:23:49,633204.0,0.0,0.0
11:23:49,632190.0,0.0,0.0
11:23:49,634005.0,0.0,0.0
11:23:49,632113.0,0.0,0.0
11:23:49,633370.0,0.0,0.0
11:23:49,633189.0,0.0,0.0
11:23:49,632161.0,0.0,0.0
11:23:49,633985.0,0.0,0.0
11:23:49,632086.0,0.0,0.0
11:23:49,633383.0,0.0,0.0
11:23:49,633194.0,0.0,0.0
11:23:49,632191.0,0.0,0.0
11:23:49,634087.0,0.0,0.0
11:23:49,632079.0,0.0,0.0
11:23:49,633393.0,0.0,0.0
11:23:49,633224.0,0.0,0.0
11:23:49,632204.0,0.0,0.0
11:23:49,634044.0,0.0,0.0
11:23:49,632069.0,0.0,0.0
11:23:49,633438.0,0.0,0.0
11:23:49,633208.0,0.0,0.0
11:23:49,632184.0,0.0,0.0
11:23:49,634013.0,0.0,0.0
11:23:49,632021.0,0.0,0.0
11:23:49,633398.0,0.0,0.0
11:23:49,633164.0,0.0,0.0
11:23:49,632170.0,0.0,0.0
11:23:49,634040.0,0.0,0.0
11:23:49,632017.0,0.0,0.0
11:23:49,633409.0,0.0,0.0
11:23:49,633161.0,0.0,0.0
11:23:49,632138.0,0.0,0.0
11:23:49,634034.0,0.0,0.0
11:23:49,632018.0,0.0,0.0
11:23:50,633404.0,0.0,0.0
11:23:50,633123.0,0.0,0.0
11:23:50,632126.0,0.0,0.0
11:23:50,634004.0,0.0,0.0
11:23:50,632043.0,0.0,0.0
11:23:50,633491.0,0.0,0.0
11:23:50,633216.0,0.0,0.0
11:23:50,632214.0,0.0,0.0
11:23:50,634003.0,0.0,0.0
11:23:50,631965.0,0.0,0.0
11:23:50,633408.0,0.0,0.0
11:23:50,633117.0,0.0,0.0
11:23:50,632178.0,0.0,0.0
11:23:50,634024.0,0.0,0.0
11:23:50,632018.0,0.0,0.0
11:23:50,633463.0,0.0,0.0
11:23:50,633105.0,0.0,0.0
11:23:50,632173.0,0.0,0.0
11:23:50,634015.0,0.0,0.0
11:23:50,631958.0,0.0,0.0
11:23:50,633426.0,0.0,0.0
11:23:50,633046.0,0.0,0.0
11:23:50,632088.0,0.0,0.0
11:23:50,633926.0,0.0,0.0
11:23:50,631881.0,0.0,0.0
11:23:50,633343.0,0.0,0.0
11:23:50,632983.0,0.0,0.0
11:23:50,632078.0,0.0,0.0
11:23:50,633863.0,0.0,0.0
11:23:50,631799.0,0.0,0.0
11:23:50,633296.0,0.0,0.0
11:23:50,632913.0,0.0,0.0
11:23:50,632040.0,0.0,0.0
11:23:50,633888.0,0.0,0.0
11:23:50,631809.0,0.0,0.0
11:23:50,633280.0,0.0,0.0
11:23:50,632896.0,0.0,0.0
11:23:50,632021.0,0.0,0.0
11:23:50,633825.0,0.0,0.0
11:23:50,631779.0,0.0,0.0
11:23:50,633286.0,0.0,0.0
11:23:50,632862.0,0.0,0.0
11:23:50,632008.0,0.0,0.0
11:23:50,633794.0,0.0,0.0
11:23:50,631746.0,0.0,0.0
11:23:50,633288.0,0.0,0.0
11:23:50,632870.0,0.0,0.0
11:23:50,632003.0,0.0,0.0
11:23:50,633806.0,0.0,0.0
11:23:50,631768.0,0.0,0.0
11:23:50,633262.0,0.0,0.0
11:23:50,632853.0,0.0,0.0
11:23:50,632045.0,0.0,0.0
11:23:50,633853.0,0.0,0.0
11:23:50,631793.0,0.0,0.0
11:23:50,633321.0,0.0,0.0
11:23:50,632856.0,0.0,0.0
11:23:50,632061.0,0.0,0.0
11:23:50,633851.0,0.0,0.0
11:23:50,631758.0,0.0,0.0
11:23:50,633331.0,0.0,0.0
11:23:50,632827.0,0.0,0.0
11:23:50,632020.0,0.0,0.0
11:23:50,633809.0,0.0,0.0
11:23:50,631723.0,0.0,0.0
11:23:50,633320.0,0.0,0.0
11:23:50,632851.0,0.0,0.0
11:23:50,632086.0,0.0,0.0
11:23:50,633823.0,0.0,0.0
11:23:50,631758.0,0.0,0.0
11:23:50,633318.0,0.0,0.0
