TimeStramp,ECG,SpO2,Respiration
11:26:00,626054.0,0.0,0.0
11:26:00,626041.0,0.0,0.0
11:26:00,625987.0,0.0,0.0
11:26:00,626061.0,0.0,0.0
11:26:00,626010.0,0.0,0.0
11:26:00,626018.0,0.0,0.0
11:26:00,626037.0,0.0,0.0
11:26:00,626006.0,0.0,0.0
11:26:00,626033.0,0.0,0.0
11:26:00,625974.0,0.0,0.0
11:26:00,626000.0,0.0,0.0
11:26:00,626010.0,0.0,0.0
11:26:00,625946.0,0.0,0.0
11:26:00,626024.0,0.0,0.0
11:26:00,625950.0,0.0,0.0
11:26:00,625979.0,0.0,0.0
11:26:00,626008.0,0.0,0.0
11:26:00,625950.0,0.0,0.0
11:26:00,626015.0,0.0,0.0
11:26:00,625961.0,0.0,0.0
11:26:00,626007.0,0.0,0.0
11:26:00,626013.0,0.0,0.0
11:26:00,625961.0,0.0,0.0
11:26:00,626039.0,0.0,0.0
11:26:00,625969.0,0.0,0.0
11:26:00,626011.0,0.0,0.0
11:26:00,626008.0,0.0,0.0
11:26:00,625965.0,0.0,0.0
11:26:00,626069.0,0.0,0.0
11:26:00,626031.0,0.0,0.0
11:26:00,626067.0,0.0,0.0
11:26:00,626081.0,0.0,0.0
11:26:00,626021.0,0.0,0.0
11:26:00,626064.0,0.0,0.0
11:26:00,626017.0,0.0,0.0
11:26:00,626031.0,0.0,0.0
11:26:00,626039.0,0.0,0.0
11:26:00,626004.0,0.0,0.0
11:26:00,626040.0,0.0,0.0
11:26:00,625959.0,0.0,0.0
11:26:00,626009.0,0.0,0.0
11:26:00,626013.0,0.0,0.0
11:26:00,625984.0,0.0,0.0
11:26:00,626079.0,0.0,0.0
11:26:00,626055.0,0.0,0.0
11:26:00,626057.0,0.0,0.0
11:26:00,626049.0,0.0,0.0
11:26:00,625948.0,0.0,0.0
11:26:00,626016.0,0.0,0.0
11:26:00,626125.0,0.0,0.0
11:26:00,626241.0,0.0,0.0
11:26:00,626200.0,0.0,0.0
11:26:00,626051.0,0.0,0.0
11:26:00,626070.0,0.0,0.0
11:26:00,626029.0,0.0,0.0
11:26:00,626073.0,0.0,0.0
11:26:00,626059.0,0.0,0.0
11:26:00,626004.0,0.0,0.0
11:26:00,626054.0,0.0,0.0
11:26:00,626014.0,0.0,0.0
11:26:00,626053.0,0.0,0.0
11:26:00,626054.0,0.0,0.0
11:26:00,626013.0,0.0,0.0
11:26:00,626069.0,0.0,0.0
11:26:00,626011.0,0.0,0.0
11:26:00,626051.0,0.0,0.0
11:26:00,626048.0,0.0,0.0
11:26:00,625989.0,0.0,0.0
11:26:00,626067.0,0.0,0.0
11:26:00,625996.0,0.0,0.0
11:26:00,626021.0,0.0,0.0
11:26:00,626003.0,0.0,0.0
11:26:00,625965.0,0.0,0.0
11:26:00,626004.0,0.0,0.0
11:26:00,625943.0,0.0,0.0
11:26:00,625936.0,0.0,0.0
11:26:00,625924.0,0.0,0.0
11:26:00,625879.0,0.0,0.0
11:26:00,625937.0,0.0,0.0
11:26:00,625867.0,0.0,0.0
11:26:00,625903.0,0.0,0.0
11:26:00,625902.0,0.0,0.0
11:26:00,625874.0,0.0,0.0
11:26:00,625941.0,0.0,0.0
11:26:00,625830.0,0.0,0.0
11:26:00,625870.0,0.0,0.0
11:26:00,625896.0,0.0,0.0
11:26:00,625861.0,0.0,0.0
11:26:00,625944.0,0.0,0.0
11:26:00,625874.0,0.0,0.0
11:26:00,625889.0,0.0,0.0
11:26:00,625900.0,0.0,0.0
11:26:00,625873.0,0.0,0.0
11:26:00,625925.0,0.0,0.0
11:26:00,625864.0,0.0,0.0
11:26:00,625902.0,0.0,0.0
11:26:00,625888.0,0.0,0.0
11:26:00,625856.0,0.0,0.0
11:26:00,625940.0,0.0,0.0
11:26:00,625888.0,0.0,0.0
11:26:00,625926.0,0.0,0.0
11:26:00,625921.0,0.0,0.0
11:26:00,625887.0,0.0,0.0
11:26:00,625951.0,0.0,0.0
11:26:00,625882.0,0.0,0.0
11:26:00,625899.0,0.0,0.0
11:26:00,625874.0,0.0,0.0
11:26:00,625860.0,0.0,0.0
11:26:00,625939.0,0.0,0.0
11:26:00,625882.0,0.0,0.0
11:26:00,625948.0,0.0,0.0
11:26:00,625938.0,0.0,0.0
11:26:00,625928.0,0.0,0.0
11:26:00,625956.0,0.0,0.0
11:26:00,625889.0,0.0,0.0
11:26:00,625948.0,0.0,0.0
11:26:00,625923.0,0.0,0.0
11:26:00,625892.0,0.0,0.0
11:26:00,625964.0,0.0,0.0
11:26:00,625921.0,0.0,0.0
11:26:00,625971.0,0.0,0.0
11:26:00,625984.0,0.0,0.0
11:26:00,625944.0,0.0,0.0
11:26:00,626005.0,0.0,0.0
11:26:00,625973.0,0.0,0.0
11:26:01,626031.0,0.0,0.0
11:26:01,625981.0,0.0,0.0
11:26:01,625980.0,0.0,0.0
11:26:01,626026.0,0.0,0.0
11:26:01,625989.0,0.0,0.0
11:26:01,626058.0,0.0,0.0
11:26:01,626053.0,0.0,0.0
11:26:01,626029.0,0.0,0.0
11:26:01,626106.0,0.0,0.0
11:26:01,626025.0,0.0,0.0
11:26:01,626048.0,0.0,0.0
11:26:01,626039.0,0.0,0.0
11:26:01,626021.0,0.0,0.0
11:26:01,626104.0,0.0,0.0
11:26:01,626030.0,0.0,0.0
11:26:01,626061.0,0.0,0.0
11:26:01,626075.0,0.0,0.0
11:26:01,626054.0,0.0,0.0
11:26:01,626138.0,0.0,0.0
11:26:01,626092.0,0.0,0.0
11:26:01,626131.0,0.0,0.0
11:26:01,626125.0,0.0,0.0
11:26:01,626130.0,0.0,0.0
11:26:01,626194.0,0.0,0.0
11:26:01,626106.0,0.0,0.0
11:26:01,626173.0,0.0,0.0
11:26:01,626166.0,0.0,0.0
11:26:01,626169.0,0.0,0.0
11:26:01,626216.0,0.0,0.0
11:26:01,626154.0,0.0,0.0
11:26:01,626196.0,0.0,0.0
11:26:01,626212.0,0.0,0.0
11:26:01,626188.0,0.0,0.0
11:26:01,626259.0,0.0,0.0
11:26:01,626216.0,0.0,0.0
11:26:01,626274.0,0.0,0.0
11:26:01,626259.0,0.0,0.0
11:26:01,626272.0,0.0,0.0
11:26:01,626354.0,0.0,0.0
11:26:01,626276.0,0.0,0.0
11:26:01,626327.0,0.0,0.0
11:26:01,626330.0,0.0,0.0
11:26:01,626324.0,0.0,0.0
11:26:01,626379.0,0.0,0.0
11:26:01,626336.0,0.0,0.0
11:26:01,626370.0,0.0,0.0
11:26:01,626362.0,0.0,0.0
11:26:01,626359.0,0.0,0.0
11:26:01,626402.0,0.0,0.0
11:26:01,626340.0,0.0,0.0
11:26:01,626395.0,0.0,0.0
11:26:01,626376.0,0.0,0.0
11:26:01,626358.0,0.0,0.0
11:26:01,626444.0,0.0,0.0
11:26:01,626422.0,0.0,0.0
11:26:01,626494.0,0.0,0.0
11:26:01,626476.0,0.0,0.0
11:26:01,626467.0,0.0,0.0
11:26:01,626532.0,0.0,0.0
11:26:01,626479.0,0.0,0.0
11:26:01,626566.0,0.0,0.0
11:26:01,626538.0,0.0,0.0
11:26:01,626464.0,0.0,0.0
11:26:01,626523.0,0.0,0.0
11:26:01,626546.0,0.0,0.0
11:26:01,626745.0,0.0,0.0
11:26:01,626773.0,0.0,0.0
11:26:01,626707.0,0.0,0.0
11:26:01,626725.0,0.0,0.0
11:26:01,626632.0,0.0,0.0
11:26:01,626711.0,0.0,0.0
11:26:01,626724.0,0.0,0.0
11:26:01,626744.0,0.0,0.0
11:26:01,626814.0,0.0,0.0
11:26:01,626745.0,0.0,0.0
11:26:01,626815.0,0.0,0.0
11:26:01,626801.0,0.0,0.0
11:26:01,626813.0,0.0,0.0
11:26:01,626881.0,0.0,0.0
11:26:01,626854.0,0.0,0.0
11:26:01,626919.0,0.0,0.0
11:26:01,626886.0,0.0,0.0
11:26:01,626879.0,0.0,0.0
11:26:01,626945.0,0.0,0.0
11:26:01,626866.0,0.0,0.0
11:26:01,626945.0,0.0,0.0
11:26:01,626938.0,0.0,0.0
11:26:01,626894.0,0.0,0.0
11:26:01,626944.0,0.0,0.0
11:26:01,626857.0,0.0,0.0
11:26:01,626924.0,0.0,0.0
11:26:01,626939.0,0.0,0.0
11:26:01,626913.0,0.0,0.0
11:26:01,626953.0,0.0,0.0
11:26:01,626881.0,0.0,0.0
11:26:01,626978.0,0.0,0.0
11:26:01,626959.0,0.0,0.0
11:26:01,626961.0,0.0,0.0
11:26:01,627007.0,0.0,0.0
11:26:01,626941.0,0.0,0.0
11:26:01,627024.0,0.0,0.0
11:26:01,627014.0,0.0,0.0
11:26:01,626996.0,0.0,0.0
11:26:01,627066.0,0.0,0.0
11:26:01,627047.0,0.0,0.0
11:26:01,627111.0,0.0,0.0
11:26:01,627071.0,0.0,0.0
11:26:01,627060.0,0.0,0.0
11:26:01,627136.0,0.0,0.0
11:26:01,627063.0,0.0,0.0
11:26:01,627111.0,0.0,0.0
11:26:01,627110.0,0.0,0.0
11:26:01,627114.0,0.0,0.0
11:26:01,627184.0,0.0,0.0
11:26:01,627128.0,0.0,0.0
11:26:01,627159.0,0.0,0.0
11:26:01,627134.0,0.0,0.0
11:26:01,627154.0,0.0,0.0
11:26:01,627218.0,0.0,0.0
11:26:01,627157.0,0.0,0.0
11:26:01,627206.0,0.0,0.0
11:26:01,627199.0,0.0,0.0
11:26:01,627195.0,0.0,0.0
11:26:01,627248.0,0.0,0.0
11:26:01,627179.0,0.0,0.0
11:26:02,627236.0,0.0,0.0
11:26:02,627224.0,0.0,0.0
11:26:02,627221.0,0.0,0.0
11:26:02,627258.0,0.0,0.0
11:26:02,627183.0,0.0,0.0
11:26:02,627270.0,0.0,0.0
11:26:02,627251.0,0.0,0.0
11:26:02,627246.0,0.0,0.0
11:26:02,627284.0,0.0,0.0
11:26:02,627259.0,0.0,0.0
11:26:02,627301.0,0.0,0.0
11:26:02,627258.0,0.0,0.0
11:26:02,627271.0,0.0,0.0
11:26:02,627338.0,0.0,0.0
11:26:02,627263.0,0.0,0.0
11:26:02,627307.0,0.0,0.0
11:26:02,627310.0,0.0,0.0
11:26:02,627318.0,0.0,0.0
11:26:02,627353.0,0.0,0.0
11:26:02,627306.0,0.0,0.0
11:26:02,627370.0,0.0,0.0
11:26:02,627307.0,0.0,0.0
11:26:02,627328.0,0.0,0.0
11:26:02,627364.0,0.0,0.0
11:26:02,627303.0,0.0,0.0
11:26:02,627376.0,0.0,0.0
11:26:02,627348.0,0.0,0.0
11:26:02,627389.0,0.0,0.0
11:26:02,627426.0,0.0,0.0
11:26:02,627364.0,0.0,0.0
11:26:02,627444.0,0.0,0.0
11:26:02,627449.0,0.0,0.0
11:26:02,627470.0,0.0,0.0
11:26:02,627501.0,0.0,0.0
11:26:02,627476.0,0.0,0.0
11:26:02,627533.0,0.0,0.0
11:26:02,627484.0,0.0,0.0
11:26:02,627499.0,0.0,0.0
11:26:02,627559.0,0.0,0.0
11:26:02,627501.0,0.0,0.0
11:26:02,627594.0,0.0,0.0
11:26:02,627569.0,0.0,0.0
11:26:02,627545.0,0.0,0.0
11:26:02,627581.0,0.0,0.0
11:26:02,627533.0,0.0,0.0
11:26:02,627615.0,0.0,0.0
11:26:02,627604.0,0.0,0.0
11:26:02,627583.0,0.0,0.0
11:26:02,627625.0,0.0,0.0
11:26:02,627586.0,0.0,0.0
11:26:02,627658.0,0.0,0.0
11:26:02,627598.0,0.0,0.0
11:26:02,627610.0,0.0,0.0
11:26:02,627654.0,0.0,0.0
11:26:02,627564.0,0.0,0.0
11:26:02,627656.0,0.0,0.0
11:26:02,627601.0,0.0,0.0
11:26:02,627611.0,0.0,0.0
11:26:02,627685.0,0.0,0.0
11:26:02,627654.0,0.0,0.0
11:26:02,627729.0,0.0,0.0
11:26:02,627688.0,0.0,0.0
11:26:02,627681.0,0.0,0.0
11:26:02,627729.0,0.0,0.0
11:26:02,627678.0,0.0,0.0
11:26:02,627719.0,0.0,0.0
11:26:02,627691.0,0.0,0.0
11:26:02,627687.0,0.0,0.0
11:26:02,627714.0,0.0,0.0
11:26:02,627641.0,0.0,0.0
11:26:02,627732.0,0.0,0.0
11:26:02,627713.0,0.0,0.0
11:26:02,627680.0,0.0,0.0
11:26:02,627689.0,0.0,0.0
11:26:02,627603.0,0.0,0.0
11:26:02,627669.0,0.0,0.0
11:26:02,627744.0,0.0,0.0
11:26:02,627793.0,0.0,0.0
11:26:02,627808.0,0.0,0.0
11:26:02,627686.0,0.0,0.0
11:26:02,627702.0,0.0,0.0
11:26:02,627616.0,0.0,0.0
11:26:02,627611.0,0.0,0.0
11:26:02,627646.0,0.0,0.0
11:26:02,627586.0,0.0,0.0
11:26:02,627648.0,0.0,0.0
11:26:02,627582.0,0.0,0.0
11:26:02,627578.0,0.0,0.0
11:26:02,627608.0,0.0,0.0
11:26:02,627548.0,0.0,0.0
11:26:02,627609.0,0.0,0.0
11:26:02,627538.0,0.0,0.0
11:26:02,627551.0,0.0,0.0
11:26:02,627578.0,0.0,0.0
11:26:02,627464.0,0.0,0.0
11:26:02,627531.0,0.0,0.0
11:26:02,627449.0,0.0,0.0
11:26:02,627444.0,0.0,0.0
11:26:02,627467.0,0.0,0.0
11:26:02,627424.0,0.0,0.0
11:26:02,627471.0,0.0,0.0
11:26:02,627369.0,0.0,0.0
11:26:02,627328.0,0.0,0.0
11:26:02,627389.0,0.0,0.0
11:26:02,627319.0,0.0,0.0
11:26:02,627352.0,0.0,0.0
11:26:02,627293.0,0.0,0.0
11:26:02,627305.0,0.0,0.0
11:26:02,627320.0,0.0,0.0
11:26:02,627266.0,0.0,0.0
11:26:02,627318.0,0.0,0.0
11:26:02,627256.0,0.0,0.0
11:26:02,627284.0,0.0,0.0
11:26:02,627302.0,0.0,0.0
11:26:02,627259.0,0.0,0.0
11:26:02,627337.0,0.0,0.0
11:26:02,627266.0,0.0,0.0
11:26:02,627301.0,0.0,0.0
11:26:02,627323.0,0.0,0.0
11:26:02,627243.0,0.0,0.0
11:26:02,627307.0,0.0,0.0
11:26:02,627283.0,0.0,0.0
11:26:02,627265.0,0.0,0.0
11:26:02,627273.0,0.0,0.0
11:26:02,627223.0,0.0,0.0
11:26:03,627295.0,0.0,0.0
11:26:03,627241.0,0.0,0.0
11:26:03,627233.0,0.0,0.0
11:26:03,627279.0,0.0,0.0
11:26:03,627232.0,0.0,0.0
11:26:03,627300.0,0.0,0.0
11:26:03,627278.0,0.0,0.0
11:26:03,627272.0,0.0,0.0
11:26:03,627284.0,0.0,0.0
11:26:03,627240.0,0.0,0.0
11:26:03,627310.0,0.0,0.0
11:26:03,627261.0,0.0,0.0
11:26:03,627260.0,0.0,0.0
11:26:03,627279.0,0.0,0.0
11:26:03,627226.0,0.0,0.0
11:26:03,627293.0,0.0,0.0
11:26:03,627237.0,0.0,0.0
11:26:03,627223.0,0.0,0.0
11:26:03,627254.0,0.0,0.0
11:26:03,627198.0,0.0,0.0
11:26:03,627268.0,0.0,0.0
11:26:03,627219.0,0.0,0.0
11:26:03,627204.0,0.0,0.0
11:26:03,627220.0,0.0,0.0
11:26:03,627118.0,0.0,0.0
11:26:03,627184.0,0.0,0.0
11:26:03,627150.0,0.0,0.0
11:26:03,627164.0,0.0,0.0
11:26:03,627176.0,0.0,0.0
11:26:03,627108.0,0.0,0.0
11:26:03,627158.0,0.0,0.0
11:26:03,627086.0,0.0,0.0
11:26:03,627109.0,0.0,0.0
11:26:03,627124.0,0.0,0.0
11:26:03,627059.0,0.0,0.0
11:26:03,627168.0,0.0,0.0
11:26:03,627092.0,0.0,0.0
11:26:03,627076.0,0.0,0.0
11:26:03,627113.0,0.0,0.0
11:26:03,627049.0,0.0,0.0
11:26:03,627093.0,0.0,0.0
11:26:03,627049.0,0.0,0.0
11:26:03,627056.0,0.0,0.0
11:26:03,627068.0,0.0,0.0
11:26:03,626988.0,0.0,0.0
11:26:03,627034.0,0.0,0.0
11:26:03,626977.0,0.0,0.0
11:26:03,627016.0,0.0,0.0
11:26:03,627034.0,0.0,0.0
11:26:03,626991.0,0.0,0.0
11:26:03,627055.0,0.0,0.0
11:26:03,626969.0,0.0,0.0
11:26:03,626962.0,0.0,0.0
11:26:03,627004.0,0.0,0.0
11:26:03,626948.0,0.0,0.0
11:26:03,626991.0,0.0,0.0
11:26:03,626952.0,0.0,0.0
11:26:03,626991.0,0.0,0.0
11:26:03,626998.0,0.0,0.0
11:26:03,626948.0,0.0,0.0
11:26:03,627026.0,0.0,0.0
11:26:03,626957.0,0.0,0.0
11:26:03,626963.0,0.0,0.0
11:26:03,627001.0,0.0,0.0
11:26:03,626949.0,0.0,0.0
11:26:03,627001.0,0.0,0.0
11:26:03,626932.0,0.0,0.0
11:26:03,626946.0,0.0,0.0
11:26:03,626949.0,0.0,0.0
11:26:03,626880.0,0.0,0.0
11:26:03,626937.0,0.0,0.0
11:26:03,626898.0,0.0,0.0
11:26:03,626923.0,0.0,0.0
11:26:03,626938.0,0.0,0.0
11:26:03,626873.0,0.0,0.0
11:26:03,626938.0,0.0,0.0
11:26:03,626858.0,0.0,0.0
11:26:03,626886.0,0.0,0.0
11:26:03,626858.0,0.0,0.0
11:26:03,626813.0,0.0,0.0
11:26:03,626888.0,0.0,0.0
11:26:03,626793.0,0.0,0.0
11:26:03,626814.0,0.0,0.0
11:26:03,626825.0,0.0,0.0
11:26:03,626740.0,0.0,0.0
11:26:03,626806.0,0.0,0.0
11:26:03,626698.0,0.0,0.0
11:26:03,626731.0,0.0,0.0
11:26:03,626879.0,0.0,0.0
11:26:03,626880.0,0.0,0.0
11:26:03,626908.0,0.0,0.0
11:26:03,626753.0,0.0,0.0
11:26:03,626744.0,0.0,0.0
11:26:03,626761.0,0.0,0.0
11:26:03,626701.0,0.0,0.0
11:26:03,626766.0,0.0,0.0
11:26:03,626698.0,0.0,0.0
11:26:03,626707.0,0.0,0.0
11:26:03,626693.0,0.0,0.0
11:26:03,626665.0,0.0,0.0
11:26:03,626733.0,0.0,0.0
11:26:03,626638.0,0.0,0.0
11:26:03,626671.0,0.0,0.0
11:26:03,626711.0,0.0,0.0
11:26:03,626624.0,0.0,0.0
11:26:03,626671.0,0.0,0.0
11:26:03,626615.0,0.0,0.0
11:26:03,626614.0,0.0,0.0
11:26:03,626624.0,0.0,0.0
11:26:03,626568.0,0.0,0.0
11:26:03,626633.0,0.0,0.0
11:26:03,626544.0,0.0,0.0
11:26:03,626563.0,0.0,0.0
11:26:03,626584.0,0.0,0.0
11:26:03,626521.0,0.0,0.0
11:26:03,626579.0,0.0,0.0
11:26:03,626492.0,0.0,0.0
11:26:03,626509.0,0.0,0.0
11:26:03,626509.0,0.0,0.0
11:26:03,626450.0,0.0,0.0
11:26:03,626507.0,0.0,0.0
11:26:03,626453.0,0.0,0.0
11:26:03,626468.0,0.0,0.0
11:26:03,626436.0,0.0,0.0
11:26:03,626404.0,0.0,0.0
11:26:04,626491.0,0.0,0.0
11:26:04,626434.0,0.0,0.0
11:26:04,626463.0,0.0,0.0
11:26:04,626481.0,0.0,0.0
11:26:04,626430.0,0.0,0.0
11:26:04,626490.0,0.0,0.0
11:26:04,626419.0,0.0,0.0
11:26:04,626420.0,0.0,0.0
11:26:04,626428.0,0.0,0.0
11:26:04,626398.0,0.0,0.0
11:26:04,626453.0,0.0,0.0
11:26:04,626392.0,0.0,0.0
11:26:04,626444.0,0.0,0.0
11:26:04,626439.0,0.0,0.0
11:26:04,626358.0,0.0,0.0
11:26:04,626426.0,0.0,0.0
11:26:04,626378.0,0.0,0.0
11:26:04,626443.0,0.0,0.0
11:26:04,626440.0,0.0,0.0
11:26:04,626376.0,0.0,0.0
11:26:04,626449.0,0.0,0.0
11:26:04,626398.0,0.0,0.0
11:26:04,626426.0,0.0,0.0
11:26:04,626416.0,0.0,0.0
11:26:04,626367.0,0.0,0.0
11:26:04,626416.0,0.0,0.0
11:26:04,626376.0,0.0,0.0
11:26:04,626390.0,0.0,0.0
11:26:04,626390.0,0.0,0.0
11:26:04,626335.0,0.0,0.0
11:26:04,626414.0,0.0,0.0
11:26:04,626339.0,0.0,0.0
11:26:04,626374.0,0.0,0.0
11:26:04,626366.0,0.0,0.0
11:26:04,626339.0,0.0,0.0
11:26:04,626424.0,0.0,0.0
11:26:04,626350.0,0.0,0.0
11:26:04,626378.0,0.0,0.0
11:26:04,626387.0,0.0,0.0
11:26:04,626328.0,0.0,0.0
11:26:04,626388.0,0.0,0.0
11:26:04,626324.0,0.0,0.0
11:26:04,626361.0,0.0,0.0
11:26:04,626362.0,0.0,0.0
11:26:04,626336.0,0.0,0.0
11:26:04,626412.0,0.0,0.0
11:26:04,626362.0,0.0,0.0
11:26:04,626366.0,0.0,0.0
11:26:04,626361.0,0.0,0.0
11:26:04,626328.0,0.0,0.0
11:26:04,626403.0,0.0,0.0
11:26:04,626349.0,0.0,0.0
11:26:04,626357.0,0.0,0.0
11:26:04,626389.0,0.0,0.0
11:26:04,626341.0,0.0,0.0
11:26:04,626425.0,0.0,0.0
11:26:04,626353.0,0.0,0.0
11:26:04,626403.0,0.0,0.0
11:26:04,626369.0,0.0,0.0
11:26:04,626334.0,0.0,0.0
11:26:04,626418.0,0.0,0.0
11:26:04,626350.0,0.0,0.0
11:26:04,626385.0,0.0,0.0
11:26:04,626375.0,0.0,0.0
11:26:04,626328.0,0.0,0.0
11:26:04,626391.0,0.0,0.0
11:26:04,626353.0,0.0,0.0
11:26:04,626410.0,0.0,0.0
11:26:04,626388.0,0.0,0.0
11:26:04,626313.0,0.0,0.0
11:26:04,626401.0,0.0,0.0
11:26:04,626339.0,0.0,0.0
11:26:04,626344.0,0.0,0.0
11:26:04,626373.0,0.0,0.0
11:26:04,626333.0,0.0,0.0
11:26:04,626386.0,0.0,0.0
11:26:04,626339.0,0.0,0.0
11:26:04,626368.0,0.0,0.0
11:26:04,626393.0,0.0,0.0
11:26:04,626324.0,0.0,0.0
11:26:04,626394.0,0.0,0.0
11:26:04,626359.0,0.0,0.0
11:26:04,626392.0,0.0,0.0
11:26:04,626370.0,0.0,0.0
11:26:04,626316.0,0.0,0.0
11:26:04,626421.0,0.0,0.0
11:26:04,626350.0,0.0,0.0
11:26:04,626384.0,0.0,0.0
11:26:04,626371.0,0.0,0.0
11:26:04,626325.0,0.0,0.0
11:26:04,626418.0,0.0,0.0
11:26:04,626338.0,0.0,0.0
11:26:04,626391.0,0.0,0.0
11:26:04,626393.0,0.0,0.0
11:26:04,626390.0,0.0,0.0
11:26:04,626484.0,0.0,0.0
11:26:04,626381.0,0.0,0.0
11:26:04,626436.0,0.0,0.0
11:26:04,626433.0,0.0,0.0
11:26:04,626405.0,0.0,0.0
11:26:04,626429.0,0.0,0.0
11:26:04,626298.0,0.0,0.0
11:26:04,626351.0,0.0,0.0
11:26:04,626503.0,0.0,0.0
11:26:04,626557.0,0.0,0.0
11:26:04,626592.0,0.0,0.0
11:26:04,626418.0,0.0,0.0
11:26:04,626418.0,0.0,0.0
11:26:04,626446.0,0.0,0.0
11:26:04,626431.0,0.0,0.0
11:26:04,626452.0,0.0,0.0
11:26:04,626394.0,0.0,0.0
11:26:04,626431.0,0.0,0.0
11:26:04,626450.0,0.0,0.0
11:26:04,626423.0,0.0,0.0
11:26:04,626480.0,0.0,0.0
11:26:04,626388.0,0.0,0.0
11:26:04,626419.0,0.0,0.0
11:26:04,626401.0,0.0,0.0
11:26:04,626368.0,0.0,0.0
11:26:04,626451.0,0.0,0.0
11:26:04,626361.0,0.0,0.0
11:26:04,626429.0,0.0,0.0
11:26:04,626403.0,0.0,0.0
11:26:04,626342.0,0.0,0.0
11:26:05,626434.0,0.0,0.0
11:26:05,626344.0,0.0,0.0
11:26:05,626366.0,0.0,0.0
11:26:05,626318.0,0.0,0.0
11:26:05,626243.0,0.0,0.0
11:26:05,626277.0,0.0,0.0
11:26:05,626206.0,0.0,0.0
11:26:05,626224.0,0.0,0.0
11:26:05,626165.0,0.0,0.0
11:26:05,626103.0,0.0,0.0
11:26:05,626156.0,0.0,0.0
11:26:05,626057.0,0.0,0.0
11:26:05,626080.0,0.0,0.0
11:26:05,626099.0,0.0,0.0
11:26:05,626122.0,0.0,0.0
11:26:05,626242.0,0.0,0.0
11:26:05,626269.0,0.0,0.0
11:26:05,626339.0,0.0,0.0
11:26:05,626299.0,0.0,0.0
11:26:05,626195.0,0.0,0.0
11:26:05,626265.0,0.0,0.0
11:26:05,626303.0,0.0,0.0
11:26:05,626299.0,0.0,0.0
11:26:05,626356.0,0.0,0.0
11:26:05,626326.0,0.0,0.0
11:26:05,626357.0,0.0,0.0
11:26:05,626386.0,0.0,0.0
11:26:05,626355.0,0.0,0.0
11:26:05,626416.0,0.0,0.0
11:26:05,626323.0,0.0,0.0
11:26:05,626406.0,0.0,0.0
11:26:05,626446.0,0.0,0.0
11:26:05,626396.0,0.0,0.0
11:26:05,626511.0,0.0,0.0
11:26:05,626378.0,0.0,0.0
11:26:05,626448.0,0.0,0.0
11:26:05,626536.0,0.0,0.0
11:26:05,626554.0,0.0,0.0
11:26:05,626633.0,0.0,0.0
11:26:05,626474.0,0.0,0.0
11:26:05,626441.0,0.0,0.0
11:26:05,626375.0,0.0,0.0
11:26:05,626316.0,0.0,0.0
11:26:05,626253.0,0.0,0.0
11:26:05,626193.0,0.0,0.0
11:26:05,626197.0,0.0,0.0
11:26:05,626087.0,0.0,0.0
11:26:05,626143.0,0.0,0.0
11:26:05,626131.0,0.0,0.0
11:26:05,626091.0,0.0,0.0
11:26:05,626149.0,0.0,0.0
11:26:05,626079.0,0.0,0.0
11:26:05,626169.0,0.0,0.0
11:26:05,626158.0,0.0,0.0
11:26:05,626137.0,0.0,0.0
11:26:05,626249.0,0.0,0.0
11:26:05,626190.0,0.0,0.0
11:26:05,626248.0,0.0,0.0
11:26:05,626250.0,0.0,0.0
11:26:05,626208.0,0.0,0.0
11:26:05,626307.0,0.0,0.0
11:26:05,626226.0,0.0,0.0
11:26:05,626286.0,0.0,0.0
11:26:05,626236.0,0.0,0.0
11:26:05,626147.0,0.0,0.0
11:26:05,626158.0,0.0,0.0
11:26:05,625959.0,0.0,0.0
11:26:05,625776.0,0.0,0.0
11:26:05,625579.0,0.0,0.0
11:26:05,625596.0,0.0,0.0
11:26:05,625686.0,0.0,0.0
11:26:05,625598.0,0.0,0.0
11:26:05,625664.0,0.0,0.0
11:26:05,625823.0,0.0,0.0
11:26:05,626015.0,0.0,0.0
11:26:05,626248.0,0.0,0.0
11:26:05,626237.0,0.0,0.0
11:26:05,626256.0,0.0,0.0
11:26:05,626202.0,0.0,0.0
11:26:05,626129.0,0.0,0.0
11:26:05,626061.0,0.0,0.0
11:26:05,625829.0,0.0,0.0
11:26:05,625813.0,0.0,0.0
11:26:05,625689.0,0.0,0.0
11:26:05,625553.0,0.0,0.0
11:26:05,625565.0,0.0,0.0
11:26:05,625448.0,0.0,0.0
11:26:05,625413.0,0.0,0.0
11:26:05,625248.0,0.0,0.0
11:26:05,625048.0,0.0,0.0
11:26:05,625099.0,0.0,0.0
11:26:05,625211.0,0.0,0.0
11:26:05,625457.0,0.0,0.0
11:26:05,625509.0,0.0,0.0
11:26:05,625503.0,0.0,0.0
11:26:05,625566.0,0.0,0.0
11:26:05,625519.0,0.0,0.0
11:26:05,625706.0,0.0,0.0
11:26:05,625861.0,0.0,0.0
11:26:05,625973.0,0.0,0.0
11:26:05,626053.0,0.0,0.0
11:26:05,625907.0,0.0,0.0
11:26:05,625927.0,0.0,0.0
11:26:05,625841.0,0.0,0.0
11:26:05,625781.0,0.0,0.0
11:26:05,625883.0,0.0,0.0
11:26:05,625816.0,0.0,0.0
11:26:05,625906.0,0.0,0.0
11:26:05,625908.0,0.0,0.0
11:26:05,625932.0,0.0,0.0
11:26:05,626001.0,0.0,0.0
11:26:05,625921.0,0.0,0.0
11:26:05,626031.0,0.0,0.0
11:26:05,626051.0,0.0,0.0
11:26:05,626029.0,0.0,0.0
11:26:05,626076.0,0.0,0.0
11:26:05,625949.0,0.0,0.0
11:26:05,625989.0,0.0,0.0
11:26:05,625940.0,0.0,0.0
11:26:05,625896.0,0.0,0.0
11:26:05,626012.0,0.0,0.0
11:26:05,626080.0,0.0,0.0
11:26:05,626088.0,0.0,0.0
11:26:05,625929.0,0.0,0.0
11:26:05,625833.0,0.0,0.0
11:26:06,625832.0,0.0,0.0
11:26:06,625753.0,0.0,0.0
11:26:06,625811.0,0.0,0.0
11:26:06,625743.0,0.0,0.0
11:26:06,625743.0,0.0,0.0
11:26:06,625810.0,0.0,0.0
11:26:06,625728.0,0.0,0.0
11:26:06,625786.0,0.0,0.0
11:26:06,625742.0,0.0,0.0
11:26:06,625729.0,0.0,0.0
11:26:06,625790.0,0.0,0.0
11:26:06,625763.0,0.0,0.0
11:26:06,625869.0,0.0,0.0
11:26:06,625834.0,0.0,0.0
11:26:06,625829.0,0.0,0.0
11:26:06,625906.0,0.0,0.0
11:26:06,625833.0,0.0,0.0
11:26:06,625897.0,0.0,0.0
11:26:06,625863.0,0.0,0.0
11:26:06,625831.0,0.0,0.0
11:26:06,625879.0,0.0,0.0
11:26:06,625807.0,0.0,0.0
11:26:06,625874.0,0.0,0.0
11:26:06,625843.0,0.0,0.0
11:26:06,625837.0,0.0,0.0
11:26:06,625944.0,0.0,0.0
11:26:06,625880.0,0.0,0.0
11:26:06,625961.0,0.0,0.0
11:26:06,626001.0,0.0,0.0
11:26:06,626018.0,0.0,0.0
11:26:06,626055.0,0.0,0.0
11:26:06,625964.0,0.0,0.0
11:26:06,625978.0,0.0,0.0
11:26:06,625896.0,0.0,0.0
11:26:06,625848.0,0.0,0.0
11:26:06,625773.0,0.0,0.0
11:26:06,625608.0,0.0,0.0
11:26:06,625570.0,0.0,0.0
11:26:06,625654.0,0.0,0.0
11:26:06,625719.0,0.0,0.0
11:26:06,625951.0,0.0,0.0
11:26:06,625896.0,0.0,0.0
11:26:06,625719.0,0.0,0.0
11:26:06,625668.0,0.0,0.0
11:26:06,625438.0,0.0,0.0
11:26:06,625416.0,0.0,0.0
11:26:06,625317.0,0.0,0.0
11:26:06,625263.0,0.0,0.0
11:26:06,625252.0,0.0,0.0
11:26:06,625161.0,0.0,0.0
11:26:06,625198.0,0.0,0.0
11:26:06,625106.0,0.0,0.0
11:26:06,625026.0,0.0,0.0
11:26:06,625038.0,0.0,0.0
11:26:06,625002.0,0.0,0.0
11:26:06,625056.0,0.0,0.0
11:26:06,625023.0,0.0,0.0
11:26:06,624991.0,0.0,0.0
11:26:06,625026.0,0.0,0.0
11:26:06,624998.0,0.0,0.0
11:26:06,625058.0,0.0,0.0
11:26:06,625030.0,0.0,0.0
11:26:06,625023.0,0.0,0.0
11:26:06,625044.0,0.0,0.0
11:26:06,624998.0,0.0,0.0
11:26:06,625018.0,0.0,0.0
11:26:06,625002.0,0.0,0.0
11:26:06,625025.0,0.0,0.0
11:26:06,625022.0,0.0,0.0
11:26:06,625019.0,0.0,0.0
11:26:06,625071.0,0.0,0.0
11:26:06,625036.0,0.0,0.0
11:26:06,625095.0,0.0,0.0
11:26:06,625070.0,0.0,0.0
11:26:06,625132.0,0.0,0.0
11:26:06,625206.0,0.0,0.0
11:26:06,625194.0,0.0,0.0
11:26:06,625268.0,0.0,0.0
11:26:06,625275.0,0.0,0.0
11:26:06,625274.0,0.0,0.0
11:26:06,625349.0,0.0,0.0
11:26:06,625374.0,0.0,0.0
11:26:06,625449.0,0.0,0.0
11:26:06,625545.0,0.0,0.0
11:26:06,625501.0,0.0,0.0
11:26:06,625633.0,0.0,0.0
11:26:06,625693.0,0.0,0.0
11:26:06,625782.0,0.0,0.0
11:26:06,625968.0,0.0,0.0
11:26:06,626118.0,0.0,0.0
11:26:06,626649.0,0.0,0.0
11:26:06,626572.0,0.0,0.0
11:26:06,626154.0,0.0,0.0
11:26:06,625861.0,0.0,0.0
11:26:06,625629.0,0.0,0.0
11:26:06,625659.0,0.0,0.0
11:26:06,625671.0,0.0,0.0
11:26:06,625654.0,0.0,0.0
11:26:06,625616.0,0.0,0.0
11:26:06,625556.0,0.0,0.0
11:26:06,625569.0,0.0,0.0
11:26:06,625506.0,0.0,0.0
11:26:06,625500.0,0.0,0.0
11:26:06,625419.0,0.0,0.0
11:26:06,625426.0,0.0,0.0
11:26:06,625494.0,0.0,0.0
11:26:06,625464.0,0.0,0.0
11:26:06,625543.0,0.0,0.0
11:26:06,625549.0,0.0,0.0
11:26:06,625552.0,0.0,0.0
11:26:06,625561.0,0.0,0.0
11:26:06,625494.0,0.0,0.0
11:26:06,625562.0,0.0,0.0
11:26:06,625573.0,0.0,0.0
11:26:06,625583.0,0.0,0.0
11:26:06,625681.0,0.0,0.0
11:26:06,625644.0,0.0,0.0
11:26:06,625751.0,0.0,0.0
11:26:06,625808.0,0.0,0.0
11:26:06,625838.0,0.0,0.0
11:26:06,625920.0,0.0,0.0
11:26:06,625912.0,0.0,0.0
11:26:06,626002.0,0.0,0.0
11:26:06,625978.0,0.0,0.0
11:26:06,625973.0,0.0,0.0
11:26:07,626003.0,0.0,0.0
11:26:07,625846.0,0.0,0.0
11:26:07,625900.0,0.0,0.0
11:26:07,625822.0,0.0,0.0
11:26:07,625558.0,0.0,0.0
11:26:07,625413.0,0.0,0.0
11:26:07,625656.0,0.0,0.0
11:26:07,626097.0,0.0,0.0
11:26:07,626248.0,0.0,0.0
11:26:07,626392.0,0.0,0.0
11:26:07,626584.0,0.0,0.0
11:26:07,626703.0,0.0,0.0
11:26:07,626934.0,0.0,0.0
11:26:07,627076.0,0.0,0.0
11:26:07,627241.0,0.0,0.0
11:26:07,627401.0,0.0,0.0
11:26:07,627458.0,0.0,0.0
11:26:07,627623.0,0.0,0.0
11:26:07,627683.0,0.0,0.0
11:26:07,627738.0,0.0,0.0
11:26:07,627788.0,0.0,0.0
11:26:07,627768.0,0.0,0.0
11:26:07,627889.0,0.0,0.0
11:26:07,627834.0,0.0,0.0
11:26:07,627839.0,0.0,0.0
11:26:07,627899.0,0.0,0.0
11:26:07,627871.0,0.0,0.0
11:26:07,627963.0,0.0,0.0
11:26:07,627935.0,0.0,0.0
11:26:07,627919.0,0.0,0.0
11:26:07,627921.0,0.0,0.0
11:26:07,627844.0,0.0,0.0
11:26:07,627911.0,0.0,0.0
11:26:07,627864.0,0.0,0.0
11:26:07,627893.0,0.0,0.0
11:26:07,627929.0,0.0,0.0
11:26:07,627838.0,0.0,0.0
11:26:07,627849.0,0.0,0.0
11:26:07,627809.0,0.0,0.0
11:26:07,627769.0,0.0,0.0
11:26:07,627776.0,0.0,0.0
11:26:07,627711.0,0.0,0.0
11:26:07,627729.0,0.0,0.0
11:26:07,627628.0,0.0,0.0
11:26:07,627583.0,0.0,0.0
11:26:07,627594.0,0.0,0.0
11:26:07,627546.0,0.0,0.0
11:26:07,627526.0,0.0,0.0
11:26:07,627564.0,0.0,0.0
11:26:07,627530.0,0.0,0.0
11:26:07,627595.0,0.0,0.0
11:26:07,627564.0,0.0,0.0
11:26:07,627578.0,0.0,0.0
11:26:07,627623.0,0.0,0.0
11:26:07,627636.0,0.0,0.0
11:26:07,627704.0,0.0,0.0
11:26:07,627729.0,0.0,0.0
11:26:07,627806.0,0.0,0.0
11:26:07,627896.0,0.0,0.0
11:26:07,627974.0,0.0,0.0
11:26:07,628124.0,0.0,0.0
11:26:07,628194.0,0.0,0.0
11:26:07,628329.0,0.0,0.0
11:26:07,628465.0,0.0,0.0
11:26:07,628541.0,0.0,0.0
11:26:07,628704.0,0.0,0.0
11:26:07,628735.0,0.0,0.0
11:26:07,628793.0,0.0,0.0
11:26:07,628944.0,0.0,0.0
11:26:07,628964.0,0.0,0.0
11:26:07,629089.0,0.0,0.0
11:26:07,629058.0,0.0,0.0
11:26:07,629117.0,0.0,0.0
11:26:07,629238.0,0.0,0.0
11:26:07,629378.0,0.0,0.0
11:26:07,629708.0,0.0,0.0
11:26:07,629669.0,0.0,0.0
11:26:07,629649.0,0.0,0.0
11:26:07,629672.0,0.0,0.0
11:26:07,629529.0,0.0,0.0
11:26:07,629591.0,0.0,0.0
11:26:07,629544.0,0.0,0.0
11:26:07,629515.0,0.0,0.0
11:26:07,629556.0,0.0,0.0
11:26:07,629501.0,0.0,0.0
11:26:07,629529.0,0.0,0.0
11:26:07,629458.0,0.0,0.0
11:26:07,629429.0,0.0,0.0
11:26:07,629393.0,0.0,0.0
11:26:07,629299.0,0.0,0.0
11:26:07,629228.0,0.0,0.0
11:26:07,629126.0,0.0,0.0
11:26:07,629121.0,0.0,0.0
11:26:07,629040.0,0.0,0.0
11:26:07,629031.0,0.0,0.0
11:26:07,629026.0,0.0,0.0
11:26:07,628941.0,0.0,0.0
11:26:07,628961.0,0.0,0.0
11:26:07,628908.0,0.0,0.0
11:26:07,628951.0,0.0,0.0
11:26:07,628957.0,0.0,0.0
11:26:07,628866.0,0.0,0.0
11:26:07,628876.0,0.0,0.0
11:26:07,628730.0,0.0,0.0
11:26:07,628620.0,0.0,0.0
11:26:07,628596.0,0.0,0.0
11:26:07,628590.0,0.0,0.0
11:26:07,628699.0,0.0,0.0
11:26:07,628616.0,0.0,0.0
11:26:07,628610.0,0.0,0.0
11:26:07,628640.0,0.0,0.0
11:26:07,628668.0,0.0,0.0
11:26:07,628867.0,0.0,0.0
11:26:07,628925.0,0.0,0.0
11:26:07,629022.0,0.0,0.0
11:26:07,629065.0,0.0,0.0
11:26:07,628963.0,0.0,0.0
11:26:07,629019.0,0.0,0.0
11:26:07,628965.0,0.0,0.0
11:26:07,628936.0,0.0,0.0
11:26:07,628850.0,0.0,0.0
11:26:07,628696.0,0.0,0.0
11:26:07,628671.0,0.0,0.0
11:26:07,628477.0,0.0,0.0
11:26:07,628378.0,0.0,0.0
11:26:08,628309.0,0.0,0.0
11:26:08,628164.0,0.0,0.0
11:26:08,628126.0,0.0,0.0
11:26:08,627974.0,0.0,0.0
11:26:08,627902.0,0.0,0.0
11:26:08,627870.0,0.0,0.0
11:26:08,627763.0,0.0,0.0
11:26:08,627891.0,0.0,0.0
11:26:08,627919.0,0.0,0.0
11:26:08,627973.0,0.0,0.0
11:26:08,628051.0,0.0,0.0
11:26:08,628064.0,0.0,0.0
11:26:08,628180.0,0.0,0.0
11:26:08,628239.0,0.0,0.0
11:26:08,628373.0,0.0,0.0
11:26:08,628505.0,0.0,0.0
11:26:08,628403.0,0.0,0.0
11:26:08,628387.0,0.0,0.0
11:26:08,628280.0,0.0,0.0
11:26:08,628293.0,0.0,0.0
11:26:08,628264.0,0.0,0.0
11:26:08,628099.0,0.0,0.0
11:26:08,627879.0,0.0,0.0
11:26:08,627799.0,0.0,0.0
11:26:08,627723.0,0.0,0.0
11:26:08,627717.0,0.0,0.0
11:26:08,627532.0,0.0,0.0
11:26:08,627516.0,0.0,0.0
11:26:08,627461.0,0.0,0.0
11:26:08,627505.0,0.0,0.0
11:26:08,627513.0,0.0,0.0
11:26:08,627389.0,0.0,0.0
11:26:08,627454.0,0.0,0.0
11:26:08,627384.0,0.0,0.0
11:26:08,627396.0,0.0,0.0
11:26:08,627358.0,0.0,0.0
11:26:08,627250.0,0.0,0.0
11:26:08,627318.0,0.0,0.0
11:26:08,627294.0,0.0,0.0
11:26:08,627290.0,0.0,0.0
11:26:08,627289.0,0.0,0.0
11:26:08,627184.0,0.0,0.0
11:26:08,627261.0,0.0,0.0
11:26:08,627186.0,0.0,0.0
11:26:08,627214.0,0.0,0.0
11:26:08,627275.0,0.0,0.0
11:26:08,627224.0,0.0,0.0
11:26:08,627304.0,0.0,0.0
11:26:08,627284.0,0.0,0.0
11:26:08,627351.0,0.0,0.0
11:26:08,627395.0,0.0,0.0
11:26:08,627379.0,0.0,0.0
11:26:08,627438.0,0.0,0.0
11:26:08,627346.0,0.0,0.0
11:26:08,627322.0,0.0,0.0
11:26:08,627321.0,0.0,0.0
11:26:08,627204.0,0.0,0.0
11:26:08,627226.0,0.0,0.0
11:26:08,627158.0,0.0,0.0
11:26:08,627169.0,0.0,0.0
11:26:08,627174.0,0.0,0.0
11:26:08,627043.0,0.0,0.0
11:26:08,627116.0,0.0,0.0
11:26:08,627062.0,0.0,0.0
11:26:08,627095.0,0.0,0.0
11:26:08,627148.0,0.0,0.0
11:26:08,627100.0,0.0,0.0
11:26:08,627208.0,0.0,0.0
11:26:08,627153.0,0.0,0.0
11:26:08,627198.0,0.0,0.0
11:26:08,627241.0,0.0,0.0
11:26:08,627194.0,0.0,0.0
11:26:08,627246.0,0.0,0.0
11:26:08,627218.0,0.0,0.0
11:26:08,627294.0,0.0,0.0
11:26:08,627333.0,0.0,0.0
11:26:08,627281.0,0.0,0.0
11:26:08,627333.0,0.0,0.0
11:26:08,627268.0,0.0,0.0
11:26:08,627289.0,0.0,0.0
11:26:08,627299.0,0.0,0.0
11:26:08,627211.0,0.0,0.0
11:26:08,627199.0,0.0,0.0
11:26:08,627187.0,0.0,0.0
11:26:08,627084.0,0.0,0.0
11:26:08,627169.0,0.0,0.0
11:26:08,627073.0,0.0,0.0
11:26:08,627097.0,0.0,0.0
11:26:08,627101.0,0.0,0.0
11:26:08,626986.0,0.0,0.0
11:26:08,627074.0,0.0,0.0
11:26:08,626991.0,0.0,0.0
11:26:08,627017.0,0.0,0.0
11:26:08,627013.0,0.0,0.0
11:26:08,626898.0,0.0,0.0
11:26:08,626947.0,0.0,0.0
11:26:08,626811.0,0.0,0.0
11:26:08,626941.0,0.0,0.0
11:26:08,626963.0,0.0,0.0
11:26:08,626708.0,0.0,0.0
11:26:08,626711.0,0.0,0.0
11:26:08,626535.0,0.0,0.0
11:26:08,626401.0,0.0,0.0
11:26:08,626216.0,0.0,0.0
11:26:08,626169.0,0.0,0.0
11:26:08,626165.0,0.0,0.0
11:26:08,626109.0,0.0,0.0
11:26:08,626212.0,0.0,0.0
11:26:08,626261.0,0.0,0.0
11:26:08,626357.0,0.0,0.0
11:26:08,626440.0,0.0,0.0
11:26:08,626397.0,0.0,0.0
11:26:08,626455.0,0.0,0.0
11:26:08,626373.0,0.0,0.0
11:26:08,626374.0,0.0,0.0
11:26:08,626334.0,0.0,0.0
11:26:08,626293.0,0.0,0.0
11:26:08,626350.0,0.0,0.0
11:26:08,626212.0,0.0,0.0
11:26:08,626238.0,0.0,0.0
11:26:08,626214.0,0.0,0.0
11:26:08,626078.0,0.0,0.0
11:26:08,626018.0,0.0,0.0
11:26:08,625828.0,0.0,0.0
11:26:08,625834.0,0.0,0.0
11:26:09,626042.0,0.0,0.0
11:26:09,626251.0,0.0,0.0
11:26:09,626489.0,0.0,0.0
11:26:09,626472.0,0.0,0.0
11:26:09,626562.0,0.0,0.0
11:26:09,626614.0,0.0,0.0
11:26:09,626589.0,0.0,0.0
11:26:09,626649.0,0.0,0.0
11:26:09,626590.0,0.0,0.0
11:26:09,626647.0,0.0,0.0
11:26:09,626629.0,0.0,0.0
11:26:09,626583.0,0.0,0.0
11:26:09,626636.0,0.0,0.0
11:26:09,626569.0,0.0,0.0
11:26:09,626658.0,0.0,0.0
11:26:09,626624.0,0.0,0.0
11:26:09,626573.0,0.0,0.0
11:26:09,626614.0,0.0,0.0
11:26:09,626526.0,0.0,0.0
11:26:09,626621.0,0.0,0.0
11:26:09,626718.0,0.0,0.0
11:26:09,626671.0,0.0,0.0
11:26:09,626716.0,0.0,0.0
11:26:09,626627.0,0.0,0.0
11:26:09,626605.0,0.0,0.0
11:26:09,626623.0,0.0,0.0
11:26:09,626586.0,0.0,0.0
11:26:09,626654.0,0.0,0.0
11:26:09,626604.0,0.0,0.0
11:26:09,626652.0,0.0,0.0
11:26:09,626667.0,0.0,0.0
11:26:09,626640.0,0.0,0.0
11:26:09,626739.0,0.0,0.0
11:26:09,626677.0,0.0,0.0
11:26:09,626745.0,0.0,0.0
11:26:09,626760.0,0.0,0.0
11:26:09,626676.0,0.0,0.0
11:26:09,626672.0,0.0,0.0
11:26:09,626583.0,0.0,0.0
11:26:09,626576.0,0.0,0.0
11:26:09,626538.0,0.0,0.0
11:26:09,626519.0,0.0,0.0
11:26:09,626594.0,0.0,0.0
11:26:09,626542.0,0.0,0.0
11:26:09,626587.0,0.0,0.0
11:26:09,626616.0,0.0,0.0
11:26:09,626608.0,0.0,0.0
11:26:09,626693.0,0.0,0.0
11:26:09,626643.0,0.0,0.0
11:26:09,626661.0,0.0,0.0
11:26:09,626633.0,0.0,0.0
11:26:09,626628.0,0.0,0.0
11:26:09,626687.0,0.0,0.0
11:26:09,626594.0,0.0,0.0
11:26:09,626608.0,0.0,0.0
11:26:09,626500.0,0.0,0.0
11:26:09,626429.0,0.0,0.0
11:26:09,626444.0,0.0,0.0
11:26:09,626314.0,0.0,0.0
11:26:09,626301.0,0.0,0.0
11:26:09,626229.0,0.0,0.0
11:26:09,626173.0,0.0,0.0
11:26:09,626222.0,0.0,0.0
11:26:09,626158.0,0.0,0.0
11:26:09,626136.0,0.0,0.0
11:26:09,626083.0,0.0,0.0
11:26:09,626063.0,0.0,0.0
11:26:09,626079.0,0.0,0.0
11:26:09,626049.0,0.0,0.0
11:26:09,626108.0,0.0,0.0
11:26:09,626090.0,0.0,0.0
11:26:09,626087.0,0.0,0.0
11:26:09,626121.0,0.0,0.0
11:26:09,626077.0,0.0,0.0
11:26:09,626105.0,0.0,0.0
11:26:09,626099.0,0.0,0.0
11:26:09,626099.0,0.0,0.0
11:26:09,626154.0,0.0,0.0
11:26:09,626099.0,0.0,0.0
11:26:09,626148.0,0.0,0.0
11:26:09,626106.0,0.0,0.0
11:26:09,626115.0,0.0,0.0
11:26:09,626146.0,0.0,0.0
11:26:09,626083.0,0.0,0.0
11:26:09,626094.0,0.0,0.0
11:26:09,626078.0,0.0,0.0
11:26:09,626036.0,0.0,0.0
11:26:09,626031.0,0.0,0.0
11:26:09,625964.0,0.0,0.0
11:26:09,626001.0,0.0,0.0
11:26:09,625954.0,0.0,0.0
11:26:09,625919.0,0.0,0.0
11:26:09,625919.0,0.0,0.0
11:26:09,625858.0,0.0,0.0
11:26:09,625884.0,0.0,0.0
11:26:09,625878.0,0.0,0.0
11:26:09,625889.0,0.0,0.0
11:26:09,625897.0,0.0,0.0
11:26:09,625838.0,0.0,0.0
11:26:09,625833.0,0.0,0.0
11:26:09,625833.0,0.0,0.0
11:26:09,625836.0,0.0,0.0
11:26:09,625846.0,0.0,0.0
11:26:09,625817.0,0.0,0.0
11:26:09,625860.0,0.0,0.0
11:26:09,625837.0,0.0,0.0
11:26:09,625797.0,0.0,0.0
11:26:09,625816.0,0.0,0.0
11:26:09,625779.0,0.0,0.0
11:26:09,625802.0,0.0,0.0
11:26:09,625778.0,0.0,0.0
11:26:09,625789.0,0.0,0.0
11:26:09,625819.0,0.0,0.0
11:26:09,625782.0,0.0,0.0
11:26:09,625822.0,0.0,0.0
11:26:09,625799.0,0.0,0.0
11:26:09,625816.0,0.0,0.0
11:26:09,625821.0,0.0,0.0
11:26:09,625785.0,0.0,0.0
11:26:09,625838.0,0.0,0.0
11:26:09,625841.0,0.0,0.0
11:26:09,625850.0,0.0,0.0
11:26:09,625855.0,0.0,0.0
11:26:09,625821.0,0.0,0.0
11:26:10,625859.0,0.0,0.0
11:26:10,625848.0,0.0,0.0
11:26:10,625801.0,0.0,0.0
11:26:10,625806.0,0.0,0.0
11:26:10,625791.0,0.0,0.0
11:26:10,625798.0,0.0,0.0
11:26:10,625739.0,0.0,0.0
11:26:10,625747.0,0.0,0.0
11:26:10,625753.0,0.0,0.0
11:26:10,625708.0,0.0,0.0
11:26:10,625751.0,0.0,0.0
11:26:10,625723.0,0.0,0.0
11:26:10,625720.0,0.0,0.0
11:26:10,625743.0,0.0,0.0
11:26:10,625692.0,0.0,0.0
11:26:10,625728.0,0.0,0.0
11:26:10,625696.0,0.0,0.0
11:26:10,625685.0,0.0,0.0
11:26:10,625705.0,0.0,0.0
11:26:10,625653.0,0.0,0.0
11:26:10,625700.0,0.0,0.0
11:26:10,625671.0,0.0,0.0
11:26:10,625687.0,0.0,0.0
11:26:10,625682.0,0.0,0.0
11:26:10,625634.0,0.0,0.0
11:26:10,625683.0,0.0,0.0
11:26:10,625652.0,0.0,0.0
11:26:10,625673.0,0.0,0.0
11:26:10,625694.0,0.0,0.0
11:26:10,625615.0,0.0,0.0
11:26:10,625642.0,0.0,0.0
11:26:10,625607.0,0.0,0.0
11:26:10,625705.0,0.0,0.0
11:26:10,625809.0,0.0,0.0
11:26:10,625830.0,0.0,0.0
11:26:10,625884.0,0.0,0.0
11:26:10,625805.0,0.0,0.0
11:26:10,625735.0,0.0,0.0
11:26:10,625711.0,0.0,0.0
11:26:10,625685.0,0.0,0.0
11:26:10,625666.0,0.0,0.0
11:26:10,625621.0,0.0,0.0
11:26:10,625598.0,0.0,0.0
11:26:10,625601.0,0.0,0.0
11:26:10,625552.0,0.0,0.0
11:26:10,625581.0,0.0,0.0
11:26:10,625549.0,0.0,0.0
11:26:10,625538.0,0.0,0.0
11:26:10,625531.0,0.0,0.0
11:26:10,625500.0,0.0,0.0
11:26:10,625542.0,0.0,0.0
11:26:10,625492.0,0.0,0.0
11:26:10,625515.0,0.0,0.0
11:26:10,625533.0,0.0,0.0
11:26:10,625491.0,0.0,0.0
11:26:10,625509.0,0.0,0.0
11:26:10,625465.0,0.0,0.0
11:26:10,625458.0,0.0,0.0
11:26:10,625472.0,0.0,0.0
11:26:10,625406.0,0.0,0.0
11:26:10,625425.0,0.0,0.0
11:26:10,625377.0,0.0,0.0
11:26:10,625379.0,0.0,0.0
11:26:10,625379.0,0.0,0.0
11:26:10,625319.0,0.0,0.0
11:26:10,625342.0,0.0,0.0
11:26:10,625319.0,0.0,0.0
11:26:10,625339.0,0.0,0.0
11:26:10,625358.0,0.0,0.0
11:26:10,625308.0,0.0,0.0
11:26:10,625364.0,0.0,0.0
11:26:10,625356.0,0.0,0.0
11:26:10,625384.0,0.0,0.0
11:26:10,625417.0,0.0,0.0
11:26:10,625385.0,0.0,0.0
11:26:10,625422.0,0.0,0.0
11:26:10,625412.0,0.0,0.0
11:26:10,625439.0,0.0,0.0
11:26:10,625491.0,0.0,0.0
11:26:10,625402.0,0.0,0.0
11:26:10,625464.0,0.0,0.0
11:26:10,625441.0,0.0,0.0
11:26:10,625447.0,0.0,0.0
11:26:10,625466.0,0.0,0.0
11:26:10,625423.0,0.0,0.0
11:26:10,625478.0,0.0,0.0
11:26:10,625454.0,0.0,0.0
11:26:10,625483.0,0.0,0.0
11:26:10,625504.0,0.0,0.0
11:26:10,625464.0,0.0,0.0
11:26:10,625532.0,0.0,0.0
11:26:10,625528.0,0.0,0.0
11:26:10,625543.0,0.0,0.0
11:26:10,625562.0,0.0,0.0
11:26:10,625521.0,0.0,0.0
11:26:10,625559.0,0.0,0.0
11:26:10,625519.0,0.0,0.0
11:26:10,625525.0,0.0,0.0
11:26:10,625546.0,0.0,0.0
11:26:10,625511.0,0.0,0.0
11:26:10,625561.0,0.0,0.0
11:26:10,625527.0,0.0,0.0
11:26:10,625542.0,0.0,0.0
11:26:10,625551.0,0.0,0.0
11:26:10,625498.0,0.0,0.0
11:26:10,625556.0,0.0,0.0
11:26:10,625526.0,0.0,0.0
11:26:10,625529.0,0.0,0.0
11:26:10,625536.0,0.0,0.0
11:26:10,625509.0,0.0,0.0
11:26:10,625568.0,0.0,0.0
11:26:10,625540.0,0.0,0.0
11:26:10,625554.0,0.0,0.0
11:26:10,625556.0,0.0,0.0
11:26:10,625528.0,0.0,0.0
11:26:10,625559.0,0.0,0.0
11:26:10,625518.0,0.0,0.0
11:26:10,625531.0,0.0,0.0
11:26:10,625548.0,0.0,0.0
11:26:10,625521.0,0.0,0.0
11:26:10,625550.0,0.0,0.0
11:26:10,625504.0,0.0,0.0
11:26:10,625518.0,0.0,0.0
11:26:10,625546.0,0.0,0.0
11:26:10,625516.0,0.0,0.0
11:26:11,625560.0,0.0,0.0
11:26:11,625537.0,0.0,0.0
11:26:11,625536.0,0.0,0.0
11:26:11,625571.0,0.0,0.0
11:26:11,625542.0,0.0,0.0
11:26:11,625599.0,0.0,0.0
11:26:11,625598.0,0.0,0.0
11:26:11,625625.0,0.0,0.0
11:26:11,625634.0,0.0,0.0
11:26:11,625623.0,0.0,0.0
11:26:11,625703.0,0.0,0.0
11:26:11,625659.0,0.0,0.0
11:26:11,625674.0,0.0,0.0
11:26:11,625697.0,0.0,0.0
11:26:11,625657.0,0.0,0.0
11:26:11,625708.0,0.0,0.0
11:26:11,625675.0,0.0,0.0
11:26:11,625679.0,0.0,0.0
11:26:11,625667.0,0.0,0.0
11:26:11,625635.0,0.0,0.0
11:26:11,625694.0,0.0,0.0
11:26:11,625629.0,0.0,0.0
11:26:11,625635.0,0.0,0.0
11:26:11,625649.0,0.0,0.0
11:26:11,625607.0,0.0,0.0
11:26:11,625664.0,0.0,0.0
11:26:11,625605.0,0.0,0.0
11:26:11,625598.0,0.0,0.0
11:26:11,625626.0,0.0,0.0
11:26:11,625583.0,0.0,0.0
11:26:11,625586.0,0.0,0.0
11:26:11,625513.0,0.0,0.0
11:26:11,625476.0,0.0,0.0
11:26:11,625549.0,0.0,0.0
11:26:11,625656.0,0.0,0.0
11:26:11,625798.0,0.0,0.0
11:26:11,625746.0,0.0,0.0
11:26:11,625824.0,0.0,0.0
11:26:11,625854.0,0.0,0.0
11:26:11,625807.0,0.0,0.0
11:26:11,625861.0,0.0,0.0
11:26:11,625825.0,0.0,0.0
11:26:11,625852.0,0.0,0.0
11:26:11,625854.0,0.0,0.0
11:26:11,625797.0,0.0,0.0
11:26:11,625833.0,0.0,0.0
11:26:11,625791.0,0.0,0.0
11:26:11,625920.0,0.0,0.0
11:26:11,626013.0,0.0,0.0
11:26:11,625996.0,0.0,0.0
11:26:11,625993.0,0.0,0.0
11:26:11,625924.0,0.0,0.0
11:26:11,625928.0,0.0,0.0
11:26:11,625991.0,0.0,0.0
11:26:11,625970.0,0.0,0.0
11:26:11,626024.0,0.0,0.0
11:26:11,626016.0,0.0,0.0
11:26:11,626047.0,0.0,0.0
11:26:11,626086.0,0.0,0.0
11:26:11,626031.0,0.0,0.0
11:26:11,626109.0,0.0,0.0
11:26:11,626106.0,0.0,0.0
11:26:11,626139.0,0.0,0.0
11:26:11,626146.0,0.0,0.0
11:26:11,626128.0,0.0,0.0
11:26:11,626173.0,0.0,0.0
11:26:11,626126.0,0.0,0.0
11:26:11,626148.0,0.0,0.0
11:26:11,626173.0,0.0,0.0
11:26:11,626166.0,0.0,0.0
11:26:11,626244.0,0.0,0.0
11:26:11,626198.0,0.0,0.0
11:26:11,626217.0,0.0,0.0
11:26:11,626235.0,0.0,0.0
11:26:11,626205.0,0.0,0.0
11:26:11,626267.0,0.0,0.0
11:26:11,626239.0,0.0,0.0
11:26:11,626238.0,0.0,0.0
11:26:11,626240.0,0.0,0.0
11:26:11,626205.0,0.0,0.0
11:26:11,626297.0,0.0,0.0
11:26:11,626253.0,0.0,0.0
11:26:11,626281.0,0.0,0.0
11:26:11,626319.0,0.0,0.0
11:26:11,626294.0,0.0,0.0
11:26:11,626362.0,0.0,0.0
11:26:11,626343.0,0.0,0.0
11:26:11,626399.0,0.0,0.0
11:26:11,626431.0,0.0,0.0
11:26:11,626401.0,0.0,0.0
11:26:11,626482.0,0.0,0.0
11:26:11,626466.0,0.0,0.0
11:26:11,626524.0,0.0,0.0
11:26:11,626569.0,0.0,0.0
11:26:11,626556.0,0.0,0.0
11:26:11,626676.0,0.0,0.0
11:26:11,626664.0,0.0,0.0
11:26:11,626743.0,0.0,0.0
11:26:11,626811.0,0.0,0.0
11:26:11,626808.0,0.0,0.0
11:26:11,626938.0,0.0,0.0
11:26:11,627010.0,0.0,0.0
11:26:11,627081.0,0.0,0.0
11:26:11,627144.0,0.0,0.0
11:26:11,627165.0,0.0,0.0
11:26:11,627328.0,0.0,0.0
11:26:11,627409.0,0.0,0.0
11:26:11,627483.0,0.0,0.0
11:26:11,627581.0,0.0,0.0
11:26:11,627604.0,0.0,0.0
11:26:11,627711.0,0.0,0.0
11:26:11,627807.0,0.0,0.0
11:26:11,627824.0,0.0,0.0
11:26:11,627926.0,0.0,0.0
11:26:11,627911.0,0.0,0.0
11:26:11,627948.0,0.0,0.0
11:26:11,628044.0,0.0,0.0
11:26:11,628024.0,0.0,0.0
11:26:11,628086.0,0.0,0.0
11:26:11,628103.0,0.0,0.0
11:26:11,628124.0,0.0,0.0
11:26:11,628172.0,0.0,0.0
11:26:11,628191.0,0.0,0.0
11:26:11,628251.0,0.0,0.0
11:26:11,628198.0,0.0,0.0
11:26:11,628222.0,0.0,0.0
11:26:12,628204.0,0.0,0.0
11:26:12,628211.0,0.0,0.0
11:26:12,628232.0,0.0,0.0
11:26:12,628190.0,0.0,0.0
11:26:12,628260.0,0.0,0.0
11:26:12,628205.0,0.0,0.0
11:26:12,628231.0,0.0,0.0
11:26:12,628264.0,0.0,0.0
11:26:12,628238.0,0.0,0.0
11:26:12,628323.0,0.0,0.0
11:26:12,628259.0,0.0,0.0
11:26:12,628275.0,0.0,0.0
11:26:12,628301.0,0.0,0.0
11:26:12,628231.0,0.0,0.0
11:26:12,628283.0,0.0,0.0
11:26:12,628149.0,0.0,0.0
11:26:12,628184.0,0.0,0.0
11:26:12,628260.0,0.0,0.0
11:26:12,628263.0,0.0,0.0
11:26:12,628379.0,0.0,0.0
11:26:12,628341.0,0.0,0.0
11:26:12,628401.0,0.0,0.0
11:26:12,628475.0,0.0,0.0
11:26:12,628456.0,0.0,0.0
11:26:12,628571.0,0.0,0.0
11:26:12,628560.0,0.0,0.0
11:26:12,628583.0,0.0,0.0
11:26:12,628581.0,0.0,0.0
11:26:12,628536.0,0.0,0.0
11:26:12,628609.0,0.0,0.0
11:26:12,628556.0,0.0,0.0
11:26:12,628532.0,0.0,0.0
11:26:12,628540.0,0.0,0.0
11:26:12,628476.0,0.0,0.0
11:26:12,628513.0,0.0,0.0
11:26:12,628478.0,0.0,0.0
11:26:12,628523.0,0.0,0.0
11:26:12,628543.0,0.0,0.0
11:26:12,628507.0,0.0,0.0
11:26:12,628614.0,0.0,0.0
11:26:12,628522.0,0.0,0.0
11:26:12,628571.0,0.0,0.0
11:26:12,628617.0,0.0,0.0
11:26:12,628579.0,0.0,0.0
11:26:12,628691.0,0.0,0.0
11:26:12,628627.0,0.0,0.0
11:26:12,628631.0,0.0,0.0
11:26:12,628648.0,0.0,0.0
11:26:12,628603.0,0.0,0.0
11:26:12,628669.0,0.0,0.0
11:26:12,628625.0,0.0,0.0
11:26:12,628654.0,0.0,0.0
11:26:12,628653.0,0.0,0.0
11:26:12,628606.0,0.0,0.0
11:26:12,628716.0,0.0,0.0
11:26:12,628643.0,0.0,0.0
11:26:12,628628.0,0.0,0.0
11:26:12,628671.0,0.0,0.0
11:26:12,628627.0,0.0,0.0
11:26:12,628694.0,0.0,0.0
11:26:12,628634.0,0.0,0.0
11:26:12,628686.0,0.0,0.0
11:26:12,628827.0,0.0,0.0
11:26:12,628882.0,0.0,0.0
11:26:12,628977.0,0.0,0.0
11:26:12,628926.0,0.0,0.0
11:26:12,628935.0,0.0,0.0
11:26:12,628945.0,0.0,0.0
11:26:12,628927.0,0.0,0.0
11:26:12,629034.0,0.0,0.0
11:26:12,629012.0,0.0,0.0
11:26:12,629046.0,0.0,0.0
11:26:12,629097.0,0.0,0.0
11:26:12,629077.0,0.0,0.0
11:26:12,629147.0,0.0,0.0
11:26:12,629097.0,0.0,0.0
11:26:12,629143.0,0.0,0.0
11:26:12,629192.0,0.0,0.0
11:26:12,629216.0,0.0,0.0
11:26:12,629317.0,0.0,0.0
11:26:12,629306.0,0.0,0.0
11:26:12,629359.0,0.0,0.0
11:26:12,629372.0,0.0,0.0
11:26:12,629363.0,0.0,0.0
11:26:12,629415.0,0.0,0.0
11:26:12,629382.0,0.0,0.0
11:26:12,629419.0,0.0,0.0
11:26:12,629410.0,0.0,0.0
11:26:12,629370.0,0.0,0.0
11:26:12,629403.0,0.0,0.0
11:26:12,629349.0,0.0,0.0
11:26:12,629368.0,0.0,0.0
11:26:12,629368.0,0.0,0.0
11:26:12,629336.0,0.0,0.0
11:26:12,629365.0,0.0,0.0
11:26:12,629328.0,0.0,0.0
11:26:12,629303.0,0.0,0.0
11:26:12,629311.0,0.0,0.0
11:26:12,629335.0,0.0,0.0
11:26:12,629427.0,0.0,0.0
11:26:12,629331.0,0.0,0.0
11:26:12,629324.0,0.0,0.0
11:26:12,629378.0,0.0,0.0
11:26:12,629367.0,0.0,0.0
11:26:12,629414.0,0.0,0.0
11:26:12,629338.0,0.0,0.0
11:26:12,629338.0,0.0,0.0
11:26:12,629341.0,0.0,0.0
11:26:12,629371.0,0.0,0.0
11:26:12,629444.0,0.0,0.0
11:26:12,629390.0,0.0,0.0
11:26:12,629438.0,0.0,0.0
11:26:12,629443.0,0.0,0.0
11:26:12,629399.0,0.0,0.0
11:26:12,629455.0,0.0,0.0
11:26:12,629435.0,0.0,0.0
11:26:12,629441.0,0.0,0.0
11:26:12,629414.0,0.0,0.0
11:26:12,629410.0,0.0,0.0
11:26:12,629464.0,0.0,0.0
11:26:12,629401.0,0.0,0.0
11:26:12,629387.0,0.0,0.0
11:26:12,629334.0,0.0,0.0
11:26:12,629244.0,0.0,0.0
11:26:13,629279.0,0.0,0.0
11:26:13,629199.0,0.0,0.0
11:26:13,629199.0,0.0,0.0
11:26:13,629154.0,0.0,0.0
11:26:13,629091.0,0.0,0.0
11:26:13,629126.0,0.0,0.0
11:26:13,629069.0,0.0,0.0
11:26:13,629108.0,0.0,0.0
11:26:13,629148.0,0.0,0.0
11:26:13,629132.0,0.0,0.0
11:26:13,629194.0,0.0,0.0
11:26:13,629187.0,0.0,0.0
11:26:13,629298.0,0.0,0.0
11:26:13,629317.0,0.0,0.0
11:26:13,629279.0,0.0,0.0
11:26:13,629303.0,0.0,0.0
11:26:13,629239.0,0.0,0.0
11:26:13,629224.0,0.0,0.0
11:26:13,629248.0,0.0,0.0
11:26:13,629158.0,0.0,0.0
11:26:13,629118.0,0.0,0.0
11:26:13,628987.0,0.0,0.0
11:26:13,628952.0,0.0,0.0
11:26:13,628874.0,0.0,0.0
11:26:13,628870.0,0.0,0.0
11:26:13,628885.0,0.0,0.0
11:26:13,628807.0,0.0,0.0
11:26:13,628848.0,0.0,0.0
11:26:13,628834.0,0.0,0.0
11:26:13,628786.0,0.0,0.0
11:26:13,628854.0,0.0,0.0
11:26:13,628822.0,0.0,0.0
11:26:13,628792.0,0.0,0.0
11:26:13,628820.0,0.0,0.0
11:26:13,628822.0,0.0,0.0
11:26:13,628837.0,0.0,0.0
11:26:13,628870.0,0.0,0.0
11:26:13,628850.0,0.0,0.0
11:26:13,628960.0,0.0,0.0
11:26:13,628881.0,0.0,0.0
11:26:13,628911.0,0.0,0.0
11:26:13,628931.0,0.0,0.0
11:26:13,628874.0,0.0,0.0
11:26:13,628971.0,0.0,0.0
11:26:13,628889.0,0.0,0.0
11:26:13,628966.0,0.0,0.0
11:26:13,628954.0,0.0,0.0
11:26:13,628841.0,0.0,0.0
11:26:13,628919.0,0.0,0.0
11:26:13,628904.0,0.0,0.0
11:26:13,628989.0,0.0,0.0
11:26:13,629008.0,0.0,0.0
11:26:13,629013.0,0.0,0.0
11:26:13,629229.0,0.0,0.0
11:26:13,629307.0,0.0,0.0
11:26:13,629497.0,0.0,0.0
11:26:13,629463.0,0.0,0.0
11:26:13,629329.0,0.0,0.0
11:26:13,629333.0,0.0,0.0
11:26:13,629159.0,0.0,0.0
11:26:13,629061.0,0.0,0.0
11:26:13,629003.0,0.0,0.0
11:26:13,628965.0,0.0,0.0
11:26:13,628914.0,0.0,0.0
11:26:13,628883.0,0.0,0.0
11:26:13,628878.0,0.0,0.0
11:26:13,628789.0,0.0,0.0
11:26:13,628822.0,0.0,0.0
11:26:13,628789.0,0.0,0.0
11:26:13,628733.0,0.0,0.0
11:26:13,628754.0,0.0,0.0
11:26:13,628732.0,0.0,0.0
11:26:13,628767.0,0.0,0.0
11:26:13,628674.0,0.0,0.0
11:26:13,628641.0,0.0,0.0
11:26:13,628689.0,0.0,0.0
11:26:13,628628.0,0.0,0.0
11:26:13,628699.0,0.0,0.0
11:26:13,628790.0,0.0,0.0
11:26:13,628839.0,0.0,0.0
11:26:13,628853.0,0.0,0.0
11:26:13,628747.0,0.0,0.0
11:26:13,628724.0,0.0,0.0
11:26:13,628674.0,0.0,0.0
11:26:13,628649.0,0.0,0.0
11:26:13,628692.0,0.0,0.0
11:26:13,628593.0,0.0,0.0
11:26:13,628606.0,0.0,0.0
11:26:13,628548.0,0.0,0.0
11:26:13,628469.0,0.0,0.0
11:26:13,628421.0,0.0,0.0
11:26:13,628236.0,0.0,0.0
11:26:13,628171.0,0.0,0.0
11:26:13,627993.0,0.0,0.0
11:26:13,627796.0,0.0,0.0
11:26:13,627857.0,0.0,0.0
11:26:13,627843.0,0.0,0.0
11:26:13,627925.0,0.0,0.0
11:26:13,627956.0,0.0,0.0
11:26:13,627938.0,0.0,0.0
11:26:13,628024.0,0.0,0.0
11:26:13,628000.0,0.0,0.0
11:26:13,628166.0,0.0,0.0
11:26:13,628269.0,0.0,0.0
11:26:13,628289.0,0.0,0.0
11:26:13,628376.0,0.0,0.0
11:26:13,628284.0,0.0,0.0
11:26:13,628252.0,0.0,0.0
11:26:13,628196.0,0.0,0.0
11:26:13,628102.0,0.0,0.0
11:26:13,628084.0,0.0,0.0
11:26:13,627944.0,0.0,0.0
11:26:13,627862.0,0.0,0.0
11:26:13,627714.0,0.0,0.0
11:26:13,627604.0,0.0,0.0
11:26:13,627591.0,0.0,0.0
11:26:13,627454.0,0.0,0.0
11:26:13,627481.0,0.0,0.0
11:26:13,627431.0,0.0,0.0
11:26:13,627338.0,0.0,0.0
11:26:13,627362.0,0.0,0.0
11:26:13,627229.0,0.0,0.0
11:26:13,627183.0,0.0,0.0
11:26:13,627083.0,0.0,0.0
11:26:13,626988.0,0.0,0.0
11:26:14,626958.0,0.0,0.0
11:26:14,626802.0,0.0,0.0
11:26:14,626756.0,0.0,0.0
11:26:14,626614.0,0.0,0.0
11:26:14,626496.0,0.0,0.0
11:26:14,626428.0,0.0,0.0
11:26:14,626269.0,0.0,0.0
11:26:14,626196.0,0.0,0.0
11:26:14,626093.0,0.0,0.0
11:26:14,625983.0,0.0,0.0
11:26:14,626251.0,0.0,0.0
11:26:14,626380.0,0.0,0.0
11:26:14,626537.0,0.0,0.0
11:26:14,626648.0,0.0,0.0
11:26:14,626479.0,0.0,0.0
11:26:14,626483.0,0.0,0.0
11:26:14,626269.0,0.0,0.0
11:26:14,626147.0,0.0,0.0
11:26:14,626121.0,0.0,0.0
11:26:14,625907.0,0.0,0.0
11:26:14,625977.0,0.0,0.0
11:26:14,625864.0,0.0,0.0
11:26:14,625781.0,0.0,0.0
11:26:14,625772.0,0.0,0.0
11:26:14,625551.0,0.0,0.0
11:26:14,625563.0,0.0,0.0
11:26:14,625383.0,0.0,0.0
11:26:14,625220.0,0.0,0.0
11:26:14,625208.0,0.0,0.0
11:26:14,624926.0,0.0,0.0
11:26:14,624852.0,0.0,0.0
11:26:14,624742.0,0.0,0.0
11:26:14,624600.0,0.0,0.0
11:26:14,624609.0,0.0,0.0
11:26:14,624441.0,0.0,0.0
11:26:14,624471.0,0.0,0.0
11:26:14,624332.0,0.0,0.0
11:26:14,624198.0,0.0,0.0
11:26:14,624192.0,0.0,0.0
11:26:14,623986.0,0.0,0.0
11:26:14,623930.0,0.0,0.0
11:26:14,623773.0,0.0,0.0
11:26:14,623593.0,0.0,0.0
11:26:14,623423.0,0.0,0.0
11:26:14,623208.0,0.0,0.0
11:26:14,623000.0,0.0,0.0
11:26:14,622688.0,0.0,0.0
11:26:14,622681.0,0.0,0.0
11:26:14,622626.0,0.0,0.0
11:26:14,622636.0,0.0,0.0
11:26:14,622686.0,0.0,0.0
11:26:14,622636.0,0.0,0.0
11:26:14,622653.0,0.0,0.0
11:26:14,622491.0,0.0,0.0
11:26:14,622421.0,0.0,0.0
11:26:14,622391.0,0.0,0.0
11:26:14,622214.0,0.0,0.0
11:26:14,622131.0,0.0,0.0
11:26:14,621962.0,0.0,0.0
11:26:14,621827.0,0.0,0.0
11:26:14,621678.0,0.0,0.0
11:26:14,621426.0,0.0,0.0
11:26:14,621366.0,0.0,0.0
11:26:14,621246.0,0.0,0.0
11:26:14,621188.0,0.0,0.0
11:26:14,621178.0,0.0,0.0
11:26:14,621129.0,0.0,0.0
11:26:14,621211.0,0.0,0.0
11:26:14,621226.0,0.0,0.0
11:26:14,621250.0,0.0,0.0
11:26:14,621274.0,0.0,0.0
11:26:14,621190.0,0.0,0.0
11:26:14,621209.0,0.0,0.0
11:26:14,621107.0,0.0,0.0
11:26:14,621081.0,0.0,0.0
11:26:14,621061.0,0.0,0.0
11:26:14,620960.0,0.0,0.0
11:26:14,620995.0,0.0,0.0
11:26:14,620880.0,0.0,0.0
11:26:14,620848.0,0.0,0.0
11:26:14,620855.0,0.0,0.0
11:26:14,620758.0,0.0,0.0
11:26:14,620740.0,0.0,0.0
11:26:14,620651.0,0.0,0.0
11:26:14,620631.0,0.0,0.0
11:26:14,620650.0,0.0,0.0
11:26:14,620678.0,0.0,0.0
11:26:14,620863.0,0.0,0.0
11:26:14,620849.0,0.0,0.0
11:26:14,620798.0,0.0,0.0
11:26:14,620792.0,0.0,0.0
11:26:14,620789.0,0.0,0.0
11:26:14,621030.0,0.0,0.0
11:26:14,621077.0,0.0,0.0
11:26:14,621014.0,0.0,0.0
11:26:14,620992.0,0.0,0.0
11:26:14,620899.0,0.0,0.0
11:26:14,620898.0,0.0,0.0
11:26:14,620814.0,0.0,0.0
11:26:14,620858.0,0.0,0.0
11:26:14,621008.0,0.0,0.0
11:26:14,620936.0,0.0,0.0
11:26:14,620936.0,0.0,0.0
11:26:14,620868.0,0.0,0.0
11:26:14,620905.0,0.0,0.0
11:26:14,620902.0,0.0,0.0
11:26:14,620769.0,0.0,0.0
11:26:14,620783.0,0.0,0.0
11:26:14,620776.0,0.0,0.0
11:26:14,620759.0,0.0,0.0
11:26:14,620879.0,0.0,0.0
11:26:14,620888.0,0.0,0.0
11:26:14,621002.0,0.0,0.0
11:26:14,621186.0,0.0,0.0
11:26:14,621120.0,0.0,0.0
11:26:14,621233.0,0.0,0.0
11:26:14,621153.0,0.0,0.0
11:26:14,621192.0,0.0,0.0
11:26:14,621241.0,0.0,0.0
11:26:14,621068.0,0.0,0.0
11:26:14,621189.0,0.0,0.0
11:26:14,621078.0,0.0,0.0
11:26:14,621065.0,0.0,0.0
11:26:14,621151.0,0.0,0.0
11:26:14,621022.0,0.0,0.0
11:26:15,621161.0,0.0,0.0
11:26:15,621079.0,0.0,0.0
11:26:15,621137.0,0.0,0.0
11:26:15,621244.0,0.0,0.0
11:26:15,621144.0,0.0,0.0
11:26:15,621318.0,0.0,0.0
11:26:15,621296.0,0.0,0.0
11:26:15,621386.0,0.0,0.0
11:26:15,621459.0,0.0,0.0
11:26:15,621404.0,0.0,0.0
11:26:15,621561.0,0.0,0.0
11:26:15,621536.0,0.0,0.0
11:26:15,621616.0,0.0,0.0
11:26:15,621653.0,0.0,0.0
11:26:15,621596.0,0.0,0.0
11:26:15,621738.0,0.0,0.0
11:26:15,621605.0,0.0,0.0
11:26:15,621739.0,0.0,0.0
11:26:15,621801.0,0.0,0.0
11:26:15,621746.0,0.0,0.0
11:26:15,621906.0,0.0,0.0
11:26:15,621657.0,0.0,0.0
11:26:15,621276.0,0.0,0.0
11:26:15,621090.0,0.0,0.0
11:26:15,621178.0,0.0,0.0
11:26:15,621546.0,0.0,0.0
11:26:15,621646.0,0.0,0.0
11:26:15,621873.0,0.0,0.0
11:26:15,622045.0,0.0,0.0
11:26:15,622128.0,0.0,0.0
11:26:15,622413.0,0.0,0.0
11:26:15,622487.0,0.0,0.0
11:26:15,622773.0,0.0,0.0
11:26:15,623066.0,0.0,0.0
11:26:15,623346.0,0.0,0.0
11:26:15,623777.0,0.0,0.0
11:26:15,623933.0,0.0,0.0
11:26:15,624168.0,0.0,0.0
11:26:15,624252.0,0.0,0.0
11:26:15,624223.0,0.0,0.0
11:26:15,624266.0,0.0,0.0
11:26:15,623993.0,0.0,0.0
11:26:15,624136.0,0.0,0.0
11:26:15,624071.0,0.0,0.0
11:26:15,623789.0,0.0,0.0
11:26:15,623712.0,0.0,0.0
11:26:15,623464.0,0.0,0.0
11:26:15,623264.0,0.0,0.0
11:26:15,623126.0,0.0,0.0
11:26:15,622856.0,0.0,0.0
11:26:15,622737.0,0.0,0.0
11:26:15,622524.0,0.0,0.0
11:26:15,622321.0,0.0,0.0
11:26:15,622113.0,0.0,0.0
11:26:15,621431.0,0.0,0.0
11:26:15,621220.0,0.0,0.0
11:26:15,621071.0,0.0,0.0
11:26:15,621527.0,0.0,0.0
11:26:15,621906.0,0.0,0.0
11:26:15,621859.0,0.0,0.0
11:26:15,622128.0,0.0,0.0
11:26:15,622089.0,0.0,0.0
11:26:15,622391.0,0.0,0.0
11:26:15,622659.0,0.0,0.0
11:26:15,623011.0,0.0,0.0
11:26:15,623486.0,0.0,0.0
11:26:15,623580.0,0.0,0.0
11:26:15,623866.0,0.0,0.0
11:26:15,624148.0,0.0,0.0
11:26:15,624194.0,0.0,0.0
11:26:15,624499.0,0.0,0.0
11:26:15,624511.0,0.0,0.0
11:26:15,624601.0,0.0,0.0
11:26:15,624466.0,0.0,0.0
11:26:15,624263.0,0.0,0.0
11:26:15,624349.0,0.0,0.0
11:26:15,624141.0,0.0,0.0
11:26:15,624053.0,0.0,0.0
11:26:15,623894.0,0.0,0.0
11:26:15,623681.0,0.0,0.0
11:26:15,623819.0,0.0,0.0
11:26:15,623669.0,0.0,0.0
11:26:15,623438.0,0.0,0.0
11:26:15,623333.0,0.0,0.0
11:26:15,623189.0,0.0,0.0
11:26:15,623335.0,0.0,0.0
11:26:15,623346.0,0.0,0.0
11:26:15,623337.0,0.0,0.0
11:26:15,623321.0,0.0,0.0
11:26:15,623164.0,0.0,0.0
11:26:15,623197.0,0.0,0.0
11:26:15,623203.0,0.0,0.0
11:26:15,623190.0,0.0,0.0
11:26:15,623077.0,0.0,0.0
11:26:15,623013.0,0.0,0.0
11:26:15,622944.0,0.0,0.0
11:26:15,622956.0,0.0,0.0
11:26:15,623259.0,0.0,0.0
11:26:15,623298.0,0.0,0.0
11:26:15,623201.0,0.0,0.0
11:26:15,623163.0,0.0,0.0
11:26:15,623169.0,0.0,0.0
11:26:15,623181.0,0.0,0.0
11:26:15,623419.0,0.0,0.0
11:26:15,624009.0,0.0,0.0
11:26:15,624259.0,0.0,0.0
11:26:15,624204.0,0.0,0.0
11:26:15,624389.0,0.0,0.0
11:26:15,624626.0,0.0,0.0
11:26:15,624754.0,0.0,0.0
11:26:15,625075.0,0.0,0.0
11:26:15,625144.0,0.0,0.0
11:26:15,625311.0,0.0,0.0
11:26:15,625422.0,0.0,0.0
11:26:15,625730.0,0.0,0.0
11:26:15,626075.0,0.0,0.0
11:26:15,625814.0,0.0,0.0
11:26:15,625514.0,0.0,0.0
11:26:15,625151.0,0.0,0.0
11:26:15,624722.0,0.0,0.0
11:26:15,624591.0,0.0,0.0
11:26:15,624344.0,0.0,0.0
11:26:15,624261.0,0.0,0.0
11:26:15,624264.0,0.0,0.0
11:26:15,624146.0,0.0,0.0
11:26:16,624064.0,0.0,0.0
11:26:16,623953.0,0.0,0.0
11:26:16,623891.0,0.0,0.0
11:26:16,623704.0,0.0,0.0
11:26:16,623536.0,0.0,0.0
11:26:16,623485.0,0.0,0.0
11:26:16,623535.0,0.0,0.0
11:26:16,623733.0,0.0,0.0
11:26:16,623787.0,0.0,0.0
11:26:16,623876.0,0.0,0.0
11:26:16,623839.0,0.0,0.0
11:26:16,623614.0,0.0,0.0
11:26:16,623497.0,0.0,0.0
11:26:16,623381.0,0.0,0.0
11:26:16,623353.0,0.0,0.0
11:26:16,623429.0,0.0,0.0
11:26:16,623542.0,0.0,0.0
11:26:16,623795.0,0.0,0.0
11:26:16,623951.0,0.0,0.0
11:26:16,624092.0,0.0,0.0
11:26:16,624226.0,0.0,0.0
11:26:16,624245.0,0.0,0.0
11:26:16,624342.0,0.0,0.0
11:26:16,624341.0,0.0,0.0
11:26:16,624358.0,0.0,0.0
11:26:16,624369.0,0.0,0.0
11:26:16,624312.0,0.0,0.0
11:26:16,624328.0,0.0,0.0
11:26:16,624289.0,0.0,0.0
11:26:16,624346.0,0.0,0.0
11:26:16,624352.0,0.0,0.0
11:26:16,624313.0,0.0,0.0
11:26:16,624362.0,0.0,0.0
11:26:16,625036.0,0.0,0.0
11:26:16,628085.0,0.0,0.0
11:26:16,627327.0,0.0,0.0
11:26:16,625878.0,0.0,0.0
11:26:16,625253.0,0.0,0.0
11:26:16,624909.0,0.0,0.0
11:26:16,624732.0,0.0,0.0
11:26:16,624596.0,0.0,0.0
11:26:16,624512.0,0.0,0.0
11:26:16,624574.0,0.0,0.0
11:26:16,624545.0,0.0,0.0
11:26:16,624594.0,0.0,0.0
11:26:16,624644.0,0.0,0.0
11:26:16,624594.0,0.0,0.0
11:26:16,624673.0,0.0,0.0
11:26:16,624634.0,0.0,0.0
11:26:16,624615.0,0.0,0.0
11:26:16,624622.0,0.0,0.0
11:26:16,624552.0,0.0,0.0
11:26:16,624591.0,0.0,0.0
11:26:16,624531.0,0.0,0.0
11:26:16,624535.0,0.0,0.0
11:26:16,624585.0,0.0,0.0
11:26:16,624535.0,0.0,0.0
11:26:16,624581.0,0.0,0.0
11:26:16,624516.0,0.0,0.0
11:26:16,624546.0,0.0,0.0
11:26:16,624524.0,0.0,0.0
11:26:16,624456.0,0.0,0.0
11:26:16,624510.0,0.0,0.0
11:26:16,624428.0,0.0,0.0
11:26:16,624436.0,0.0,0.0
11:26:16,624429.0,0.0,0.0
11:26:16,624394.0,0.0,0.0
11:26:16,624423.0,0.0,0.0
11:26:16,624345.0,0.0,0.0
11:26:16,624366.0,0.0,0.0
11:26:16,624378.0,0.0,0.0
11:26:16,624316.0,0.0,0.0
11:26:16,624347.0,0.0,0.0
11:26:16,624263.0,0.0,0.0
11:26:16,624258.0,0.0,0.0
11:26:16,624235.0,0.0,0.0
11:26:16,624163.0,0.0,0.0
11:26:16,624209.0,0.0,0.0
11:26:16,624119.0,0.0,0.0
11:26:16,624151.0,0.0,0.0
11:26:16,624171.0,0.0,0.0
11:26:16,624143.0,0.0,0.0
11:26:16,624243.0,0.0,0.0
11:26:16,624217.0,0.0,0.0
11:26:16,624293.0,0.0,0.0
11:26:16,624360.0,0.0,0.0
11:26:16,624423.0,0.0,0.0
11:26:16,624554.0,0.0,0.0
11:26:16,624587.0,0.0,0.0
11:26:16,624678.0,0.0,0.0
11:26:16,624714.0,0.0,0.0
11:26:16,624728.0,0.0,0.0
11:26:16,624921.0,0.0,0.0
11:26:16,625073.0,0.0,0.0
11:26:16,625241.0,0.0,0.0
11:26:16,625338.0,0.0,0.0
11:26:16,625341.0,0.0,0.0
11:26:16,625413.0,0.0,0.0
11:26:16,625357.0,0.0,0.0
11:26:16,625379.0,0.0,0.0
11:26:16,625389.0,0.0,0.0
11:26:16,625324.0,0.0,0.0
11:26:16,625372.0,0.0,0.0
11:26:16,625358.0,0.0,0.0
11:26:16,625521.0,0.0,0.0
11:26:16,625649.0,0.0,0.0
11:26:16,625588.0,0.0,0.0
11:26:16,625601.0,0.0,0.0
11:26:16,625499.0,0.0,0.0
11:26:16,625485.0,0.0,0.0
11:26:16,625493.0,0.0,0.0
11:26:16,625402.0,0.0,0.0
11:26:16,625437.0,0.0,0.0
11:26:16,625339.0,0.0,0.0
11:26:16,625327.0,0.0,0.0
11:26:16,625379.0,0.0,0.0
11:26:16,625419.0,0.0,0.0
11:26:16,625613.0,0.0,0.0
11:26:16,625698.0,0.0,0.0
11:26:16,625817.0,0.0,0.0
11:26:16,625839.0,0.0,0.0
11:26:16,625778.0,0.0,0.0
11:26:16,625773.0,0.0,0.0
11:26:16,625680.0,0.0,0.0
11:26:16,625674.0,0.0,0.0
11:26:17,625684.0,0.0,0.0
11:26:17,625630.0,0.0,0.0
11:26:17,625639.0,0.0,0.0
11:26:17,625586.0,0.0,0.0
11:26:17,625638.0,0.0,0.0
11:26:17,625697.0,0.0,0.0
11:26:17,625707.0,0.0,0.0
11:26:17,625822.0,0.0,0.0
11:26:17,625799.0,0.0,0.0
11:26:17,625812.0,0.0,0.0
11:26:17,625822.0,0.0,0.0
11:26:17,625761.0,0.0,0.0
11:26:17,625820.0,0.0,0.0
11:26:17,625879.0,0.0,0.0
11:26:17,625813.0,0.0,0.0
11:26:17,625911.0,0.0,0.0
11:26:17,625789.0,0.0,0.0
11:26:17,625816.0,0.0,0.0
11:26:17,625848.0,0.0,0.0
11:26:17,625753.0,0.0,0.0
11:26:17,625840.0,0.0,0.0
11:26:17,625692.0,0.0,0.0
11:26:17,625656.0,0.0,0.0
11:26:17,625605.0,0.0,0.0
11:26:17,625528.0,0.0,0.0
11:26:17,625606.0,0.0,0.0
11:26:17,625481.0,0.0,0.0
11:26:17,625501.0,0.0,0.0
11:26:17,625529.0,0.0,0.0
11:26:17,625479.0,0.0,0.0
11:26:17,625503.0,0.0,0.0
11:26:17,625440.0,0.0,0.0
11:26:17,625408.0,0.0,0.0
11:26:17,625368.0,0.0,0.0
11:26:17,625337.0,0.0,0.0
11:26:17,625430.0,0.0,0.0
11:26:17,625407.0,0.0,0.0
11:26:17,625397.0,0.0,0.0
11:26:17,625378.0,0.0,0.0
11:26:17,625323.0,0.0,0.0
11:26:17,625362.0,0.0,0.0
11:26:17,625350.0,0.0,0.0
11:26:17,625403.0,0.0,0.0
11:26:17,625382.0,0.0,0.0
11:26:17,625345.0,0.0,0.0
11:26:17,625392.0,0.0,0.0
11:26:17,625359.0,0.0,0.0
11:26:17,625389.0,0.0,0.0
11:26:17,625389.0,0.0,0.0
11:26:17,625381.0,0.0,0.0
11:26:17,625428.0,0.0,0.0
11:26:17,625426.0,0.0,0.0
11:26:17,625426.0,0.0,0.0
11:26:17,625406.0,0.0,0.0
11:26:17,625372.0,0.0,0.0
11:26:17,625354.0,0.0,0.0
11:26:17,625306.0,0.0,0.0
11:26:17,625356.0,0.0,0.0
11:26:17,625327.0,0.0,0.0
11:26:17,625326.0,0.0,0.0
11:26:17,625298.0,0.0,0.0
11:26:17,625266.0,0.0,0.0
11:26:17,625303.0,0.0,0.0
11:26:17,625312.0,0.0,0.0
11:26:17,625304.0,0.0,0.0
11:26:17,625312.0,0.0,0.0
11:26:17,625299.0,0.0,0.0
11:26:17,625336.0,0.0,0.0
11:26:17,625302.0,0.0,0.0
11:26:17,625354.0,0.0,0.0
11:26:17,625321.0,0.0,0.0
11:26:17,625293.0,0.0,0.0
11:26:17,625336.0,0.0,0.0
11:26:17,625281.0,0.0,0.0
11:26:17,625317.0,0.0,0.0
11:26:17,625274.0,0.0,0.0
11:26:17,625228.0,0.0,0.0
11:26:17,625271.0,0.0,0.0
11:26:17,625193.0,0.0,0.0
11:26:17,625229.0,0.0,0.0
11:26:17,625224.0,0.0,0.0
11:26:17,625200.0,0.0,0.0
11:26:17,625242.0,0.0,0.0
11:26:17,625208.0,0.0,0.0
11:26:17,625257.0,0.0,0.0
11:26:17,625239.0,0.0,0.0
11:26:17,625224.0,0.0,0.0
11:26:17,625268.0,0.0,0.0
11:26:17,625164.0,0.0,0.0
11:26:17,625208.0,0.0,0.0
11:26:17,625159.0,0.0,0.0
11:26:17,625125.0,0.0,0.0
11:26:17,625171.0,0.0,0.0
11:26:17,625079.0,0.0,0.0
11:26:17,625118.0,0.0,0.0
11:26:17,625048.0,0.0,0.0
11:26:17,624978.0,0.0,0.0
11:26:17,624906.0,0.0,0.0
11:26:17,624654.0,0.0,0.0
11:26:17,624729.0,0.0,0.0
11:26:17,624906.0,0.0,0.0
11:26:17,625038.0,0.0,0.0
11:26:17,625238.0,0.0,0.0
11:26:17,625238.0,0.0,0.0
11:26:17,625328.0,0.0,0.0
11:26:17,625338.0,0.0,0.0
11:26:17,625276.0,0.0,0.0
11:26:17,625329.0,0.0,0.0
11:26:17,625314.0,0.0,0.0
11:26:17,625374.0,0.0,0.0
11:26:17,625410.0,0.0,0.0
11:26:17,625574.0,0.0,0.0
11:26:17,625798.0,0.0,0.0
11:26:17,625773.0,0.0,0.0
11:26:17,625799.0,0.0,0.0
11:26:17,625743.0,0.0,0.0
11:26:17,625710.0,0.0,0.0
11:26:17,625803.0,0.0,0.0
11:26:17,625739.0,0.0,0.0
11:26:17,625802.0,0.0,0.0
11:26:17,625791.0,0.0,0.0
11:26:17,625769.0,0.0,0.0
11:26:17,625852.0,0.0,0.0
11:26:17,625749.0,0.0,0.0
11:26:17,625770.0,0.0,0.0
11:26:18,625756.0,0.0,0.0
11:26:18,625702.0,0.0,0.0
11:26:18,625715.0,0.0,0.0
11:26:18,625559.0,0.0,0.0
11:26:18,625559.0,0.0,0.0
11:26:18,625521.0,0.0,0.0
11:26:18,625449.0,0.0,0.0
11:26:18,625473.0,0.0,0.0
11:26:18,625383.0,0.0,0.0
11:26:18,625386.0,0.0,0.0
11:26:18,625386.0,0.0,0.0
11:26:18,625416.0,0.0,0.0
11:26:18,625483.0,0.0,0.0
11:26:18,625454.0,0.0,0.0
11:26:18,625528.0,0.0,0.0
11:26:18,625520.0,0.0,0.0
11:26:18,625533.0,0.0,0.0
11:26:18,625538.0,0.0,0.0
11:26:18,625467.0,0.0,0.0
11:26:18,625554.0,0.0,0.0
11:26:18,625524.0,0.0,0.0
11:26:18,625498.0,0.0,0.0
11:26:18,625498.0,0.0,0.0
11:26:18,625491.0,0.0,0.0
11:26:18,625579.0,0.0,0.0
11:26:18,625530.0,0.0,0.0
11:26:18,625549.0,0.0,0.0
11:26:18,625556.0,0.0,0.0
11:26:18,625485.0,0.0,0.0
11:26:18,625505.0,0.0,0.0
11:26:18,625474.0,0.0,0.0
11:26:18,625455.0,0.0,0.0
11:26:18,625478.0,0.0,0.0
11:26:18,625438.0,0.0,0.0
11:26:18,625472.0,0.0,0.0
11:26:18,625401.0,0.0,0.0
11:26:18,625408.0,0.0,0.0
11:26:18,625470.0,0.0,0.0
11:26:18,625463.0,0.0,0.0
11:26:18,625519.0,0.0,0.0
11:26:18,625493.0,0.0,0.0
11:26:18,625469.0,0.0,0.0
11:26:18,625496.0,0.0,0.0
11:26:18,625422.0,0.0,0.0
11:26:18,625531.0,0.0,0.0
11:26:18,625598.0,0.0,0.0
11:26:18,625662.0,0.0,0.0
11:26:18,625708.0,0.0,0.0
11:26:18,625681.0,0.0,0.0
11:26:18,625740.0,0.0,0.0
11:26:18,625736.0,0.0,0.0
11:26:18,625750.0,0.0,0.0
11:26:18,625761.0,0.0,0.0
11:26:18,625751.0,0.0,0.0
11:26:18,625756.0,0.0,0.0
11:26:18,625888.0,0.0,0.0
11:26:18,625910.0,0.0,0.0
11:26:18,626046.0,0.0,0.0
11:26:18,625996.0,0.0,0.0
11:26:18,625891.0,0.0,0.0
11:26:18,625919.0,0.0,0.0
11:26:18,625806.0,0.0,0.0
11:26:18,625784.0,0.0,0.0
11:26:18,625738.0,0.0,0.0
11:26:18,625711.0,0.0,0.0
11:26:18,625679.0,0.0,0.0
11:26:18,625613.0,0.0,0.0
11:26:18,625601.0,0.0,0.0
11:26:18,625539.0,0.0,0.0
11:26:18,625576.0,0.0,0.0
11:26:18,625561.0,0.0,0.0
11:26:18,625533.0,0.0,0.0
11:26:18,625520.0,0.0,0.0
11:26:18,625427.0,0.0,0.0
11:26:18,625386.0,0.0,0.0
11:26:18,625271.0,0.0,0.0
11:26:18,625208.0,0.0,0.0
11:26:18,625165.0,0.0,0.0
11:26:18,625145.0,0.0,0.0
11:26:18,625324.0,0.0,0.0
11:26:18,625389.0,0.0,0.0
11:26:18,625406.0,0.0,0.0
11:26:18,625391.0,0.0,0.0
11:26:18,625276.0,0.0,0.0
11:26:18,625286.0,0.0,0.0
11:26:18,625258.0,0.0,0.0
11:26:18,625257.0,0.0,0.0
11:26:18,625349.0,0.0,0.0
11:26:18,625394.0,0.0,0.0
11:26:18,625507.0,0.0,0.0
11:26:18,625579.0,0.0,0.0
11:26:18,625705.0,0.0,0.0
11:26:18,625801.0,0.0,0.0
11:26:18,625787.0,0.0,0.0
11:26:18,625835.0,0.0,0.0
11:26:18,625776.0,0.0,0.0
11:26:18,625721.0,0.0,0.0
11:26:18,625699.0,0.0,0.0
11:26:18,625593.0,0.0,0.0
11:26:18,625564.0,0.0,0.0
11:26:18,625489.0,0.0,0.0
11:26:18,625454.0,0.0,0.0
11:26:18,625438.0,0.0,0.0
11:26:18,625348.0,0.0,0.0
11:26:18,625345.0,0.0,0.0
11:26:18,625269.0,0.0,0.0
11:26:18,625226.0,0.0,0.0
11:26:18,625227.0,0.0,0.0
11:26:18,625163.0,0.0,0.0
11:26:18,625184.0,0.0,0.0
11:26:18,625153.0,0.0,0.0
11:26:18,625142.0,0.0,0.0
11:26:18,625144.0,0.0,0.0
11:26:18,625071.0,0.0,0.0
11:26:18,625120.0,0.0,0.0
11:26:18,625098.0,0.0,0.0
11:26:18,625097.0,0.0,0.0
11:26:18,625114.0,0.0,0.0
11:26:18,625028.0,0.0,0.0
11:26:18,625053.0,0.0,0.0
11:26:18,625075.0,0.0,0.0
11:26:18,625149.0,0.0,0.0
11:26:18,625188.0,0.0,0.0
11:26:18,625149.0,0.0,0.0
11:26:18,625101.0,0.0,0.0
11:26:19,625098.0,0.0,0.0
11:26:19,625053.0,0.0,0.0
11:26:19,625093.0,0.0,0.0
11:26:19,625088.0,0.0,0.0
11:26:19,625069.0,0.0,0.0
11:26:19,625058.0,0.0,0.0
11:26:19,625021.0,0.0,0.0
11:26:19,624987.0,0.0,0.0
11:26:19,624929.0,0.0,0.0
11:26:19,624923.0,0.0,0.0
11:26:19,624836.0,0.0,0.0
11:26:19,624821.0,0.0,0.0
11:26:19,624785.0,0.0,0.0
11:26:19,624696.0,0.0,0.0
11:26:19,624727.0,0.0,0.0
11:26:19,624643.0,0.0,0.0
11:26:19,624573.0,0.0,0.0
11:26:19,624544.0,0.0,0.0
11:26:19,624416.0,0.0,0.0
11:26:19,624458.0,0.0,0.0
11:26:19,624430.0,0.0,0.0
11:26:19,624458.0,0.0,0.0
11:26:19,624519.0,0.0,0.0
11:26:19,624522.0,0.0,0.0
11:26:19,624654.0,0.0,0.0
11:26:19,624644.0,0.0,0.0
11:26:19,624683.0,0.0,0.0
11:26:19,624769.0,0.0,0.0
11:26:19,624766.0,0.0,0.0
11:26:19,624878.0,0.0,0.0
11:26:19,624847.0,0.0,0.0
11:26:19,624861.0,0.0,0.0
11:26:19,624927.0,0.0,0.0
11:26:19,624898.0,0.0,0.0
11:26:19,624956.0,0.0,0.0
11:26:19,624893.0,0.0,0.0
11:26:19,624888.0,0.0,0.0
11:26:19,624892.0,0.0,0.0
11:26:19,624816.0,0.0,0.0
11:26:19,624844.0,0.0,0.0
11:26:19,624768.0,0.0,0.0
11:26:19,624751.0,0.0,0.0
11:26:19,624715.0,0.0,0.0
11:26:19,624618.0,0.0,0.0
11:26:19,624691.0,0.0,0.0
11:26:19,624659.0,0.0,0.0
11:26:19,624662.0,0.0,0.0
11:26:19,624714.0,0.0,0.0
11:26:19,624641.0,0.0,0.0
11:26:19,624698.0,0.0,0.0
11:26:19,624659.0,0.0,0.0
11:26:19,624669.0,0.0,0.0
11:26:19,624684.0,0.0,0.0
11:26:19,624675.0,0.0,0.0
11:26:19,624745.0,0.0,0.0
11:26:19,624723.0,0.0,0.0
11:26:19,624731.0,0.0,0.0
11:26:19,624757.0,0.0,0.0
11:26:19,624698.0,0.0,0.0
11:26:19,624738.0,0.0,0.0
11:26:19,624714.0,0.0,0.0
11:26:19,624744.0,0.0,0.0
11:26:19,624753.0,0.0,0.0
11:26:19,624694.0,0.0,0.0
11:26:19,624721.0,0.0,0.0
11:26:19,624667.0,0.0,0.0
11:26:19,624706.0,0.0,0.0
11:26:19,624719.0,0.0,0.0
11:26:19,624671.0,0.0,0.0
11:26:19,624774.0,0.0,0.0
11:26:19,624751.0,0.0,0.0
11:26:19,624789.0,0.0,0.0
11:26:19,624829.0,0.0,0.0
11:26:19,624793.0,0.0,0.0
11:26:19,624831.0,0.0,0.0
11:26:19,624771.0,0.0,0.0
11:26:19,624756.0,0.0,0.0
11:26:19,624750.0,0.0,0.0
11:26:19,624723.0,0.0,0.0
11:26:19,624729.0,0.0,0.0
11:26:19,624688.0,0.0,0.0
11:26:19,624652.0,0.0,0.0
11:26:19,624661.0,0.0,0.0
11:26:19,624643.0,0.0,0.0
11:26:19,624634.0,0.0,0.0
11:26:19,624574.0,0.0,0.0
11:26:19,624541.0,0.0,0.0
11:26:19,624514.0,0.0,0.0
11:26:19,624502.0,0.0,0.0
11:26:19,624524.0,0.0,0.0
11:26:19,624477.0,0.0,0.0
11:26:19,624499.0,0.0,0.0
11:26:19,624469.0,0.0,0.0
11:26:19,624421.0,0.0,0.0
11:26:19,624460.0,0.0,0.0
11:26:19,624403.0,0.0,0.0
11:26:19,624443.0,0.0,0.0
11:26:19,624450.0,0.0,0.0
11:26:19,624390.0,0.0,0.0
11:26:19,624436.0,0.0,0.0
11:26:19,624394.0,0.0,0.0
11:26:19,624451.0,0.0,0.0
11:26:19,624488.0,0.0,0.0
11:26:19,624454.0,0.0,0.0
11:26:19,624521.0,0.0,0.0
11:26:19,624515.0,0.0,0.0
11:26:19,624563.0,0.0,0.0
11:26:19,624588.0,0.0,0.0
11:26:19,624558.0,0.0,0.0
11:26:19,624623.0,0.0,0.0
11:26:19,624578.0,0.0,0.0
11:26:19,624564.0,0.0,0.0
11:26:19,624518.0,0.0,0.0
11:26:19,624479.0,0.0,0.0
11:26:19,624531.0,0.0,0.0
11:26:19,624486.0,0.0,0.0
11:26:19,624463.0,0.0,0.0
11:26:19,624468.0,0.0,0.0
11:26:19,624417.0,0.0,0.0
11:26:19,624459.0,0.0,0.0
11:26:19,624415.0,0.0,0.0
11:26:19,624436.0,0.0,0.0
11:26:19,624423.0,0.0,0.0
11:26:19,624369.0,0.0,0.0
11:26:19,624413.0,0.0,0.0
11:26:20,624368.0,0.0,0.0
11:26:20,624396.0,0.0,0.0
11:26:20,624398.0,0.0,0.0
11:26:20,624369.0,0.0,0.0
11:26:20,624419.0,0.0,0.0
11:26:20,624376.0,0.0,0.0
11:26:20,624376.0,0.0,0.0
11:26:20,624349.0,0.0,0.0
11:26:20,624294.0,0.0,0.0
11:26:20,624350.0,0.0,0.0
11:26:20,624404.0,0.0,0.0
11:26:20,624498.0,0.0,0.0
11:26:20,624463.0,0.0,0.0
11:26:20,624366.0,0.0,0.0
11:26:20,624399.0,0.0,0.0
11:26:20,624333.0,0.0,0.0
11:26:20,624343.0,0.0,0.0
11:26:20,624337.0,0.0,0.0
11:26:20,624310.0,0.0,0.0
11:26:20,624336.0,0.0,0.0
11:26:20,624258.0,0.0,0.0
11:26:20,624302.0,0.0,0.0
11:26:20,624336.0,0.0,0.0
11:26:20,624268.0,0.0,0.0
11:26:20,624313.0,0.0,0.0
11:26:20,624279.0,0.0,0.0
11:26:20,624287.0,0.0,0.0
11:26:20,624274.0,0.0,0.0
11:26:20,624243.0,0.0,0.0
11:26:20,624263.0,0.0,0.0
11:26:20,624218.0,0.0,0.0
11:26:20,624214.0,0.0,0.0
11:26:20,624184.0,0.0,0.0
11:26:20,624152.0,0.0,0.0
11:26:20,624189.0,0.0,0.0
11:26:20,624113.0,0.0,0.0
11:26:20,624159.0,0.0,0.0
11:26:20,624145.0,0.0,0.0
11:26:20,624087.0,0.0,0.0
11:26:20,624149.0,0.0,0.0
11:26:20,624091.0,0.0,0.0
11:26:20,624115.0,0.0,0.0
11:26:20,624127.0,0.0,0.0
11:26:20,624086.0,0.0,0.0
11:26:20,624134.0,0.0,0.0
11:26:20,624073.0,0.0,0.0
11:26:20,624093.0,0.0,0.0
11:26:20,624113.0,0.0,0.0
11:26:20,624094.0,0.0,0.0
11:26:20,624144.0,0.0,0.0
11:26:20,624111.0,0.0,0.0
11:26:20,624146.0,0.0,0.0
11:26:20,624138.0,0.0,0.0
11:26:20,624098.0,0.0,0.0
11:26:20,624145.0,0.0,0.0
11:26:20,624089.0,0.0,0.0
11:26:20,624103.0,0.0,0.0
11:26:20,624120.0,0.0,0.0
11:26:20,624089.0,0.0,0.0
11:26:20,624147.0,0.0,0.0
11:26:20,624109.0,0.0,0.0
11:26:20,624124.0,0.0,0.0
11:26:20,624128.0,0.0,0.0
11:26:20,624098.0,0.0,0.0
11:26:20,624116.0,0.0,0.0
11:26:20,624061.0,0.0,0.0
11:26:20,624098.0,0.0,0.0
11:26:20,624092.0,0.0,0.0
11:26:20,624098.0,0.0,0.0
11:26:20,624136.0,0.0,0.0
11:26:20,624102.0,0.0,0.0
11:26:20,624146.0,0.0,0.0
11:26:20,624124.0,0.0,0.0
11:26:20,624094.0,0.0,0.0
11:26:20,624140.0,0.0,0.0
11:26:20,624081.0,0.0,0.0
11:26:20,624126.0,0.0,0.0
11:26:20,624114.0,0.0,0.0
11:26:20,624073.0,0.0,0.0
11:26:20,624108.0,0.0,0.0
11:26:20,624056.0,0.0,0.0
11:26:20,624108.0,0.0,0.0
11:26:20,624098.0,0.0,0.0
11:26:20,624082.0,0.0,0.0
11:26:20,624136.0,0.0,0.0
11:26:20,624060.0,0.0,0.0
11:26:20,624128.0,0.0,0.0
11:26:20,624118.0,0.0,0.0
11:26:20,624114.0,0.0,0.0
11:26:20,624157.0,0.0,0.0
11:26:20,624149.0,0.0,0.0
11:26:20,624172.0,0.0,0.0
11:26:20,624184.0,0.0,0.0
11:26:20,624164.0,0.0,0.0
11:26:20,624218.0,0.0,0.0
11:26:20,624248.0,0.0,0.0
11:26:20,624246.0,0.0,0.0
11:26:20,624361.0,0.0,0.0
11:26:20,624332.0,0.0,0.0
11:26:20,624370.0,0.0,0.0
11:26:20,624404.0,0.0,0.0
11:26:20,624341.0,0.0,0.0
11:26:20,624369.0,0.0,0.0
11:26:20,624296.0,0.0,0.0
11:26:20,624225.0,0.0,0.0
11:26:20,624197.0,0.0,0.0
11:26:20,624224.0,0.0,0.0
11:26:20,624289.0,0.0,0.0
11:26:20,624258.0,0.0,0.0
11:26:20,624243.0,0.0,0.0
11:26:20,624231.0,0.0,0.0
11:26:20,624184.0,0.0,0.0
11:26:20,624128.0,0.0,0.0
11:26:20,624107.0,0.0,0.0
11:26:20,624130.0,0.0,0.0
11:26:20,624123.0,0.0,0.0
11:26:20,624144.0,0.0,0.0
11:26:20,624101.0,0.0,0.0
11:26:20,624056.0,0.0,0.0
11:26:20,624057.0,0.0,0.0
11:26:20,623971.0,0.0,0.0
11:26:20,623968.0,0.0,0.0
11:26:20,623916.0,0.0,0.0
11:26:20,623861.0,0.0,0.0
11:26:20,623919.0,0.0,0.0
11:26:21,623844.0,0.0,0.0
11:26:21,623814.0,0.0,0.0
11:26:21,623732.0,0.0,0.0
11:26:21,623669.0,0.0,0.0
11:26:21,623733.0,0.0,0.0
11:26:21,623670.0,0.0,0.0
11:26:21,623637.0,0.0,0.0
11:26:21,623573.0,0.0,0.0
11:26:21,623455.0,0.0,0.0
11:26:21,623407.0,0.0,0.0
11:26:21,623256.0,0.0,0.0
11:26:21,623145.0,0.0,0.0
11:26:21,622996.0,0.0,0.0
11:26:21,623014.0,0.0,0.0
11:26:21,623137.0,0.0,0.0
11:26:21,623124.0,0.0,0.0
11:26:21,623228.0,0.0,0.0
11:26:21,623358.0,0.0,0.0
11:26:21,623458.0,0.0,0.0
11:26:21,623556.0,0.0,0.0
11:26:21,623451.0,0.0,0.0
11:26:21,623449.0,0.0,0.0
11:26:21,623435.0,0.0,0.0
11:26:21,623389.0,0.0,0.0
11:26:21,623394.0,0.0,0.0
11:26:21,623275.0,0.0,0.0
11:26:21,623279.0,0.0,0.0
11:26:21,623238.0,0.0,0.0
11:26:21,623174.0,0.0,0.0
11:26:21,623266.0,0.0,0.0
11:26:21,623193.0,0.0,0.0
11:26:21,623168.0,0.0,0.0
11:26:21,623136.0,0.0,0.0
11:26:21,623264.0,0.0,0.0
11:26:21,623363.0,0.0,0.0
11:26:21,623044.0,0.0,0.0
11:26:21,622734.0,0.0,0.0
11:26:21,622406.0,0.0,0.0
11:26:21,622167.0,0.0,0.0
11:26:21,622013.0,0.0,0.0
11:26:21,621805.0,0.0,0.0
11:26:21,621756.0,0.0,0.0
11:26:21,621643.0,0.0,0.0
11:26:21,621564.0,0.0,0.0
11:26:21,621573.0,0.0,0.0
11:26:21,621539.0,0.0,0.0
11:26:21,621602.0,0.0,0.0
11:26:21,621470.0,0.0,0.0
11:26:21,621338.0,0.0,0.0
11:26:21,621271.0,0.0,0.0
11:26:21,621128.0,0.0,0.0
11:26:21,621166.0,0.0,0.0
11:26:21,621090.0,0.0,0.0
11:26:21,621073.0,0.0,0.0
11:26:21,621083.0,0.0,0.0
11:26:21,621004.0,0.0,0.0
11:26:21,621005.0,0.0,0.0
11:26:21,620878.0,0.0,0.0
11:26:21,620764.0,0.0,0.0
11:26:21,620706.0,0.0,0.0
11:26:21,620553.0,0.0,0.0
11:26:21,620493.0,0.0,0.0
11:26:21,620298.0,0.0,0.0
11:26:21,620145.0,0.0,0.0
11:26:21,620168.0,0.0,0.0
11:26:21,620036.0,0.0,0.0
11:26:21,620106.0,0.0,0.0
11:26:21,620183.0,0.0,0.0
11:26:21,620286.0,0.0,0.0
11:26:21,620494.0,0.0,0.0
11:26:21,620629.0,0.0,0.0
11:26:21,620883.0,0.0,0.0
11:26:21,620746.0,0.0,0.0
11:26:21,621045.0,0.0,0.0
11:26:21,621298.0,0.0,0.0
11:26:21,621324.0,0.0,0.0
11:26:21,621447.0,0.0,0.0
11:26:21,621331.0,0.0,0.0
11:26:21,621218.0,0.0,0.0
11:26:21,621188.0,0.0,0.0
11:26:21,621148.0,0.0,0.0
11:26:21,621269.0,0.0,0.0
11:26:21,621295.0,0.0,0.0
11:26:21,621286.0,0.0,0.0
11:26:21,621441.0,0.0,0.0
11:26:21,621563.0,0.0,0.0
11:26:21,621678.0,0.0,0.0
11:26:21,621562.0,0.0,0.0
11:26:21,621456.0,0.0,0.0
11:26:21,621819.0,0.0,0.0
11:26:21,621811.0,0.0,0.0
11:26:21,621876.0,0.0,0.0
11:26:21,621794.0,0.0,0.0
11:26:21,621709.0,0.0,0.0
11:26:21,621816.0,0.0,0.0
11:26:21,621902.0,0.0,0.0
11:26:21,622023.0,0.0,0.0
11:26:21,622002.0,0.0,0.0
11:26:21,622030.0,0.0,0.0
11:26:21,622116.0,0.0,0.0
11:26:21,622192.0,0.0,0.0
11:26:21,622329.0,0.0,0.0
11:26:21,622399.0,0.0,0.0
11:26:21,622413.0,0.0,0.0
11:26:21,622560.0,0.0,0.0
11:26:21,622789.0,0.0,0.0
11:26:21,622962.0,0.0,0.0
11:26:21,622993.0,0.0,0.0
11:26:21,622897.0,0.0,0.0
11:26:21,622898.0,0.0,0.0
11:26:21,622790.0,0.0,0.0
11:26:21,622795.0,0.0,0.0
11:26:21,622798.0,0.0,0.0
11:26:21,622658.0,0.0,0.0
11:26:21,622559.0,0.0,0.0
11:26:21,622386.0,0.0,0.0
11:26:21,622318.0,0.0,0.0
11:26:21,622194.0,0.0,0.0
11:26:21,622090.0,0.0,0.0
11:26:21,622084.0,0.0,0.0
11:26:21,622010.0,0.0,0.0
11:26:21,622013.0,0.0,0.0
11:26:21,622081.0,0.0,0.0
11:26:21,622113.0,0.0,0.0
11:26:21,622153.0,0.0,0.0
11:26:22,622139.0,0.0,0.0
11:26:22,622332.0,0.0,0.0
11:26:22,622394.0,0.0,0.0
11:26:22,622498.0,0.0,0.0
11:26:22,622631.0,0.0,0.0
11:26:22,622649.0,0.0,0.0
11:26:22,622719.0,0.0,0.0
11:26:22,622734.0,0.0,0.0
11:26:22,622777.0,0.0,0.0
11:26:22,622978.0,0.0,0.0
11:26:22,623013.0,0.0,0.0
11:26:22,623142.0,0.0,0.0
11:26:22,623231.0,0.0,0.0
11:26:22,623397.0,0.0,0.0
11:26:22,623606.0,0.0,0.0
11:26:22,623576.0,0.0,0.0
11:26:22,623699.0,0.0,0.0
11:26:22,623733.0,0.0,0.0
11:26:22,623663.0,0.0,0.0
11:26:22,623724.0,0.0,0.0
11:26:22,623731.0,0.0,0.0
11:26:22,623888.0,0.0,0.0
11:26:22,623934.0,0.0,0.0
11:26:22,624009.0,0.0,0.0
11:26:22,624144.0,0.0,0.0
11:26:22,624159.0,0.0,0.0
11:26:22,624414.0,0.0,0.0
11:26:22,624646.0,0.0,0.0
11:26:22,624847.0,0.0,0.0
11:26:22,625019.0,0.0,0.0
11:26:22,625091.0,0.0,0.0
11:26:22,625279.0,0.0,0.0
11:26:22,625349.0,0.0,0.0
11:26:22,625396.0,0.0,0.0
11:26:22,625566.0,0.0,0.0
11:26:22,625659.0,0.0,0.0
11:26:22,625807.0,0.0,0.0
11:26:22,625834.0,0.0,0.0
11:26:22,625879.0,0.0,0.0
11:26:22,625929.0,0.0,0.0
11:26:22,625818.0,0.0,0.0
11:26:22,625810.0,0.0,0.0
11:26:22,625736.0,0.0,0.0
11:26:22,625681.0,0.0,0.0
11:26:22,625700.0,0.0,0.0
11:26:22,625518.0,0.0,0.0
11:26:22,625350.0,0.0,0.0
11:26:22,625096.0,0.0,0.0
11:26:22,624801.0,0.0,0.0
11:26:22,624633.0,0.0,0.0
11:26:22,624003.0,0.0,0.0
11:26:22,624047.0,0.0,0.0
11:26:22,624056.0,0.0,0.0
11:26:22,624526.0,0.0,0.0
11:26:22,625388.0,0.0,0.0
11:26:22,625498.0,0.0,0.0
11:26:22,625661.0,0.0,0.0
11:26:22,625774.0,0.0,0.0
11:26:22,625993.0,0.0,0.0
11:26:22,626173.0,0.0,0.0
11:26:22,626128.0,0.0,0.0
11:26:22,626409.0,0.0,0.0
11:26:22,626398.0,0.0,0.0
11:26:22,626508.0,0.0,0.0
11:26:22,626594.0,0.0,0.0
11:26:22,626347.0,0.0,0.0
11:26:22,626266.0,0.0,0.0
11:26:22,626106.0,0.0,0.0
11:26:22,626100.0,0.0,0.0
11:26:22,626148.0,0.0,0.0
11:26:22,625861.0,0.0,0.0
11:26:22,625747.0,0.0,0.0
11:26:22,625788.0,0.0,0.0
11:26:22,625845.0,0.0,0.0
11:26:22,625976.0,0.0,0.0
11:26:22,625951.0,0.0,0.0
11:26:22,626050.0,0.0,0.0
11:26:22,626029.0,0.0,0.0
11:26:22,625989.0,0.0,0.0
11:26:22,626044.0,0.0,0.0
11:26:22,625957.0,0.0,0.0
11:26:22,626083.0,0.0,0.0
11:26:22,626022.0,0.0,0.0
11:26:22,625966.0,0.0,0.0
11:26:22,626083.0,0.0,0.0
11:26:22,626033.0,0.0,0.0
11:26:22,626049.0,0.0,0.0
11:26:22,625911.0,0.0,0.0
11:26:22,625941.0,0.0,0.0
11:26:22,625924.0,0.0,0.0
11:26:22,625740.0,0.0,0.0
11:26:22,625789.0,0.0,0.0
11:26:22,625727.0,0.0,0.0
11:26:22,625734.0,0.0,0.0
11:26:22,625810.0,0.0,0.0
11:26:22,625681.0,0.0,0.0
11:26:22,625798.0,0.0,0.0
11:26:22,625764.0,0.0,0.0
11:26:22,625745.0,0.0,0.0
11:26:22,625661.0,0.0,0.0
11:26:22,625491.0,0.0,0.0
11:26:22,625739.0,0.0,0.0
11:26:22,625683.0,0.0,0.0
11:26:22,625698.0,0.0,0.0
11:26:22,625729.0,0.0,0.0
11:26:22,625640.0,0.0,0.0
11:26:22,625684.0,0.0,0.0
11:26:22,625598.0,0.0,0.0
11:26:22,625591.0,0.0,0.0
11:26:22,625758.0,0.0,0.0
11:26:22,625679.0,0.0,0.0
11:26:22,625550.0,0.0,0.0
11:26:22,625504.0,0.0,0.0
11:26:22,625588.0,0.0,0.0
11:26:22,625702.0,0.0,0.0
11:26:22,625596.0,0.0,0.0
11:26:22,625539.0,0.0,0.0
11:26:22,625256.0,0.0,0.0
11:26:22,625176.0,0.0,0.0
11:26:22,625131.0,0.0,0.0
11:26:22,624973.0,0.0,0.0
11:26:22,624900.0,0.0,0.0
11:26:22,624724.0,0.0,0.0
11:26:22,624611.0,0.0,0.0
11:26:23,624534.0,0.0,0.0
11:26:23,624398.0,0.0,0.0
11:26:23,624373.0,0.0,0.0
11:26:23,624203.0,0.0,0.0
11:26:23,624149.0,0.0,0.0
11:26:23,624175.0,0.0,0.0
11:26:23,624055.0,0.0,0.0
11:26:23,624020.0,0.0,0.0
11:26:23,623900.0,0.0,0.0
11:26:23,623863.0,0.0,0.0
11:26:23,623744.0,0.0,0.0
11:26:23,623621.0,0.0,0.0
11:26:23,623576.0,0.0,0.0
11:26:23,623376.0,0.0,0.0
11:26:23,623395.0,0.0,0.0
11:26:23,623403.0,0.0,0.0
11:26:23,623301.0,0.0,0.0
11:26:23,623210.0,0.0,0.0
11:26:23,622867.0,0.0,0.0
11:26:23,622704.0,0.0,0.0
11:26:23,622601.0,0.0,0.0
11:26:23,622413.0,0.0,0.0
11:26:23,622382.0,0.0,0.0
11:26:23,622241.0,0.0,0.0
11:26:23,622246.0,0.0,0.0
11:26:23,622112.0,0.0,0.0
11:26:23,622016.0,0.0,0.0
11:26:23,622025.0,0.0,0.0
11:26:23,621797.0,0.0,0.0
11:26:23,621832.0,0.0,0.0
11:26:23,621878.0,0.0,0.0
11:26:23,621660.0,0.0,0.0
11:26:23,621579.0,0.0,0.0
11:26:23,621348.0,0.0,0.0
11:26:23,621347.0,0.0,0.0
11:26:23,621362.0,0.0,0.0
11:26:23,621254.0,0.0,0.0
11:26:23,621303.0,0.0,0.0
11:26:23,621262.0,0.0,0.0
11:26:23,621524.0,0.0,0.0
11:26:23,621739.0,0.0,0.0
11:26:23,621786.0,0.0,0.0
11:26:23,622088.0,0.0,0.0
11:26:23,622378.0,0.0,0.0
11:26:23,622650.0,0.0,0.0
11:26:23,622912.0,0.0,0.0
11:26:23,622997.0,0.0,0.0
11:26:23,623148.0,0.0,0.0
11:26:23,623152.0,0.0,0.0
11:26:23,623233.0,0.0,0.0
11:26:23,623331.0,0.0,0.0
11:26:23,623124.0,0.0,0.0
11:26:23,623008.0,0.0,0.0
11:26:23,622861.0,0.0,0.0
11:26:23,622699.0,0.0,0.0
11:26:23,622513.0,0.0,0.0
11:26:23,621991.0,0.0,0.0
11:26:23,621697.0,0.0,0.0
11:26:23,621358.0,0.0,0.0
11:26:23,621233.0,0.0,0.0
11:26:23,621279.0,0.0,0.0
11:26:23,621267.0,0.0,0.0
11:26:23,621221.0,0.0,0.0
11:26:23,621196.0,0.0,0.0
11:26:23,621280.0,0.0,0.0
11:26:23,621615.0,0.0,0.0
11:26:23,621811.0,0.0,0.0
11:26:23,621995.0,0.0,0.0
11:26:23,622126.0,0.0,0.0
11:26:23,622333.0,0.0,0.0
11:26:23,622876.0,0.0,0.0
11:26:23,623093.0,0.0,0.0
11:26:23,623168.0,0.0,0.0
11:26:23,622998.0,0.0,0.0
11:26:23,622887.0,0.0,0.0
11:26:23,622814.0,0.0,0.0
11:26:23,622569.0,0.0,0.0
11:26:23,622508.0,0.0,0.0
11:26:23,622239.0,0.0,0.0
11:26:23,622287.0,0.0,0.0
11:26:23,622426.0,0.0,0.0
11:26:23,622119.0,0.0,0.0
11:26:23,622590.0,0.0,0.0
11:26:23,622243.0,0.0,0.0
11:26:23,621859.0,0.0,0.0
11:26:23,622815.0,0.0,0.0
11:26:23,623265.0,0.0,0.0
11:26:23,623218.0,0.0,0.0
11:26:23,622977.0,0.0,0.0
11:26:23,623428.0,0.0,0.0
11:26:23,623717.0,0.0,0.0
11:26:23,623287.0,0.0,0.0
11:26:23,623339.0,0.0,0.0
11:26:23,623756.0,0.0,0.0
11:26:23,624173.0,0.0,0.0
11:26:23,624116.0,0.0,0.0
11:26:23,623736.0,0.0,0.0
11:26:23,624311.0,0.0,0.0
11:26:23,624461.0,0.0,0.0
11:26:23,624329.0,0.0,0.0
11:26:23,624349.0,0.0,0.0
11:26:23,624464.0,0.0,0.0
11:26:23,624576.0,0.0,0.0
11:26:23,624397.0,0.0,0.0
11:26:23,624468.0,0.0,0.0
11:26:23,624428.0,0.0,0.0
11:26:23,624319.0,0.0,0.0
11:26:23,624420.0,0.0,0.0
11:26:23,624283.0,0.0,0.0
11:26:23,624366.0,0.0,0.0
11:26:23,624561.0,0.0,0.0
11:26:23,624403.0,0.0,0.0
11:26:23,624422.0,0.0,0.0
11:26:23,624330.0,0.0,0.0
11:26:23,624341.0,0.0,0.0
11:26:23,624265.0,0.0,0.0
11:26:23,624166.0,0.0,0.0
11:26:23,624226.0,0.0,0.0
11:26:23,624101.0,0.0,0.0
11:26:23,624149.0,0.0,0.0
11:26:23,624168.0,0.0,0.0
11:26:23,624055.0,0.0,0.0
11:26:23,624141.0,0.0,0.0
11:26:23,624069.0,0.0,0.0
11:26:23,624097.0,0.0,0.0
11:26:24,624093.0,0.0,0.0
11:26:24,624011.0,0.0,0.0
11:26:24,624130.0,0.0,0.0
11:26:24,624060.0,0.0,0.0
11:26:24,624135.0,0.0,0.0
11:26:24,624055.0,0.0,0.0
11:26:24,623879.0,0.0,0.0
11:26:24,623970.0,0.0,0.0
11:26:24,623719.0,0.0,0.0
11:26:24,623645.0,0.0,0.0
11:26:24,623573.0,0.0,0.0
11:26:24,623353.0,0.0,0.0
11:26:24,623381.0,0.0,0.0
11:26:24,623314.0,0.0,0.0
11:26:24,623263.0,0.0,0.0
11:26:24,623168.0,0.0,0.0
11:26:24,623011.0,0.0,0.0
11:26:24,623105.0,0.0,0.0
11:26:24,622922.0,0.0,0.0
11:26:24,622947.0,0.0,0.0
11:26:24,623031.0,0.0,0.0
11:26:24,622639.0,0.0,0.0
11:26:24,622532.0,0.0,0.0
11:26:24,622614.0,0.0,0.0
11:26:24,622609.0,0.0,0.0
11:26:24,622468.0,0.0,0.0
11:26:24,622378.0,0.0,0.0
11:26:24,622512.0,0.0,0.0
11:26:24,622506.0,0.0,0.0
11:26:24,622494.0,0.0,0.0
11:26:24,622506.0,0.0,0.0
11:26:24,622519.0,0.0,0.0
11:26:24,622634.0,0.0,0.0
11:26:24,622516.0,0.0,0.0
11:26:24,622393.0,0.0,0.0
11:26:24,622191.0,0.0,0.0
11:26:24,621934.0,0.0,0.0
11:26:24,622053.0,0.0,0.0
11:26:24,621992.0,0.0,0.0
11:26:24,622046.0,0.0,0.0
11:26:24,622068.0,0.0,0.0
11:26:24,622057.0,0.0,0.0
11:26:24,622117.0,0.0,0.0
11:26:24,622208.0,0.0,0.0
11:26:24,621999.0,0.0,0.0
11:26:24,621545.0,0.0,0.0
11:26:24,621830.0,0.0,0.0
11:26:24,622251.0,0.0,0.0
11:26:24,622248.0,0.0,0.0
11:26:24,622013.0,0.0,0.0
11:26:24,621804.0,0.0,0.0
11:26:24,621761.0,0.0,0.0
11:26:24,621727.0,0.0,0.0
11:26:24,621464.0,0.0,0.0
11:26:24,621629.0,0.0,0.0
11:26:24,621791.0,0.0,0.0
11:26:24,621441.0,0.0,0.0
11:26:24,621249.0,0.0,0.0
11:26:24,621058.0,0.0,0.0
11:26:24,621082.0,0.0,0.0
11:26:24,621062.0,0.0,0.0
11:26:24,620914.0,0.0,0.0
11:26:24,620912.0,0.0,0.0
11:26:24,620799.0,0.0,0.0
11:26:24,620841.0,0.0,0.0
11:26:24,620732.0,0.0,0.0
11:26:24,620531.0,0.0,0.0
11:26:24,620464.0,0.0,0.0
11:26:24,620306.0,0.0,0.0
11:26:24,620299.0,0.0,0.0
11:26:24,620064.0,0.0,0.0
11:26:24,619880.0,0.0,0.0
11:26:24,619913.0,0.0,0.0
11:26:24,619841.0,0.0,0.0
11:26:24,619922.0,0.0,0.0
11:26:24,620079.0,0.0,0.0
11:26:24,620124.0,0.0,0.0
11:26:24,620209.0,0.0,0.0
11:26:24,620184.0,0.0,0.0
11:26:24,620319.0,0.0,0.0
11:26:24,620401.0,0.0,0.0
11:26:24,620419.0,0.0,0.0
11:26:24,620571.0,0.0,0.0
11:26:24,620686.0,0.0,0.0
11:26:24,620863.0,0.0,0.0
11:26:24,620967.0,0.0,0.0
11:26:24,621040.0,0.0,0.0
11:26:24,621175.0,0.0,0.0
11:26:24,621114.0,0.0,0.0
11:26:24,621148.0,0.0,0.0
11:26:24,621176.0,0.0,0.0
11:26:24,621140.0,0.0,0.0
11:26:24,621205.0,0.0,0.0
11:26:24,621142.0,0.0,0.0
11:26:24,621233.0,0.0,0.0
11:26:24,621321.0,0.0,0.0
11:26:24,621347.0,0.0,0.0
11:26:24,621481.0,0.0,0.0
11:26:24,621392.0,0.0,0.0
11:26:24,621388.0,0.0,0.0
11:26:24,621310.0,0.0,0.0
11:26:24,621258.0,0.0,0.0
11:26:24,621301.0,0.0,0.0
11:26:24,620982.0,0.0,0.0
11:26:24,620954.0,0.0,0.0
11:26:24,621164.0,0.0,0.0
11:26:24,620918.0,0.0,0.0
11:26:24,621020.0,0.0,0.0
11:26:24,620994.0,0.0,0.0
11:26:24,621295.0,0.0,0.0
11:26:24,621468.0,0.0,0.0
11:26:24,621499.0,0.0,0.0
11:26:24,621626.0,0.0,0.0
11:26:24,621681.0,0.0,0.0
11:26:24,621859.0,0.0,0.0
11:26:24,621933.0,0.0,0.0
11:26:24,622099.0,0.0,0.0
11:26:24,622182.0,0.0,0.0
11:26:24,622059.0,0.0,0.0
11:26:24,622003.0,0.0,0.0
11:26:24,621917.0,0.0,0.0
11:26:24,621965.0,0.0,0.0
11:26:24,622057.0,0.0,0.0
11:26:24,621999.0,0.0,0.0
11:26:24,622183.0,0.0,0.0
11:26:24,622327.0,0.0,0.0
11:26:25,622426.0,0.0,0.0
11:26:25,622621.0,0.0,0.0
11:26:25,622449.0,0.0,0.0
11:26:25,622600.0,0.0,0.0
11:26:25,622866.0,0.0,0.0
11:26:25,622969.0,0.0,0.0
11:26:25,623176.0,0.0,0.0
11:26:25,622920.0,0.0,0.0
11:26:25,622944.0,0.0,0.0
11:26:25,622697.0,0.0,0.0
11:26:25,622772.0,0.0,0.0
11:26:25,623184.0,0.0,0.0
11:26:25,623239.0,0.0,0.0
11:26:25,623402.0,0.0,0.0
11:26:25,623278.0,0.0,0.0
11:26:25,623114.0,0.0,0.0
11:26:25,623187.0,0.0,0.0
11:26:25,622994.0,0.0,0.0
11:26:25,623111.0,0.0,0.0
11:26:25,623396.0,0.0,0.0
11:26:25,623235.0,0.0,0.0
11:26:25,623217.0,0.0,0.0
11:26:25,623231.0,0.0,0.0
11:26:25,623116.0,0.0,0.0
11:26:25,623148.0,0.0,0.0
11:26:25,623138.0,0.0,0.0
11:26:25,623105.0,0.0,0.0
11:26:25,622976.0,0.0,0.0
11:26:25,622883.0,0.0,0.0
11:26:25,622858.0,0.0,0.0
11:26:25,622697.0,0.0,0.0
11:26:25,622792.0,0.0,0.0
11:26:25,622804.0,0.0,0.0
11:26:25,622925.0,0.0,0.0
11:26:25,622813.0,0.0,0.0
11:26:25,622631.0,0.0,0.0
11:26:25,622681.0,0.0,0.0
11:26:25,622648.0,0.0,0.0
11:26:25,622699.0,0.0,0.0
11:26:25,622665.0,0.0,0.0
11:26:25,622523.0,0.0,0.0
11:26:25,622620.0,0.0,0.0
11:26:25,622524.0,0.0,0.0
11:26:25,622644.0,0.0,0.0
11:26:25,622589.0,0.0,0.0
11:26:25,622506.0,0.0,0.0
11:26:25,622635.0,0.0,0.0
11:26:25,622599.0,0.0,0.0
11:26:25,622703.0,0.0,0.0
11:26:25,622694.0,0.0,0.0
11:26:25,622689.0,0.0,0.0
11:26:25,622822.0,0.0,0.0
11:26:25,622657.0,0.0,0.0
11:26:25,622684.0,0.0,0.0
11:26:25,622606.0,0.0,0.0
11:26:25,622563.0,0.0,0.0
11:26:25,622568.0,0.0,0.0
11:26:25,622383.0,0.0,0.0
11:26:25,622380.0,0.0,0.0
11:26:25,622398.0,0.0,0.0
11:26:25,622429.0,0.0,0.0
11:26:25,622487.0,0.0,0.0
11:26:25,622318.0,0.0,0.0
11:26:25,622295.0,0.0,0.0
11:26:25,622231.0,0.0,0.0
11:26:25,622199.0,0.0,0.0
11:26:25,622231.0,0.0,0.0
11:26:25,622049.0,0.0,0.0
11:26:25,622029.0,0.0,0.0
11:26:25,621904.0,0.0,0.0
11:26:25,621812.0,0.0,0.0
11:26:25,621844.0,0.0,0.0
11:26:25,621589.0,0.0,0.0
11:26:25,621680.0,0.0,0.0
11:26:25,621760.0,0.0,0.0
11:26:25,621752.0,0.0,0.0
11:26:25,621759.0,0.0,0.0
11:26:25,621647.0,0.0,0.0
11:26:25,621778.0,0.0,0.0
11:26:25,621703.0,0.0,0.0
11:26:25,621612.0,0.0,0.0
11:26:25,621585.0,0.0,0.0
11:26:25,621446.0,0.0,0.0
11:26:25,621483.0,0.0,0.0
11:26:25,621411.0,0.0,0.0
11:26:25,621353.0,0.0,0.0
11:26:25,621419.0,0.0,0.0
11:26:25,621391.0,0.0,0.0
11:26:25,621542.0,0.0,0.0
11:26:25,621563.0,0.0,0.0
11:26:25,621547.0,0.0,0.0
11:26:25,621569.0,0.0,0.0
11:26:25,621481.0,0.0,0.0
11:26:25,621514.0,0.0,0.0
11:26:25,621477.0,0.0,0.0
11:26:25,621388.0,0.0,0.0
11:26:25,621384.0,0.0,0.0
11:26:25,621333.0,0.0,0.0
11:26:25,621355.0,0.0,0.0
11:26:25,621218.0,0.0,0.0
11:26:25,621091.0,0.0,0.0
11:26:25,621063.0,0.0,0.0
11:26:25,620928.0,0.0,0.0
11:26:25,620837.0,0.0,0.0
11:26:25,621099.0,0.0,0.0
11:26:25,621163.0,0.0,0.0
11:26:25,621051.0,0.0,0.0
11:26:25,620924.0,0.0,0.0
11:26:25,621023.0,0.0,0.0
11:26:25,620990.0,0.0,0.0
11:26:25,620823.0,0.0,0.0
11:26:25,620677.0,0.0,0.0
11:26:25,620508.0,0.0,0.0
11:26:25,620504.0,0.0,0.0
11:26:25,620344.0,0.0,0.0
11:26:25,620157.0,0.0,0.0
11:26:25,620105.0,0.0,0.0
11:26:25,620022.0,0.0,0.0
11:26:25,620082.0,0.0,0.0
11:26:25,619994.0,0.0,0.0
11:26:25,619900.0,0.0,0.0
11:26:25,619833.0,0.0,0.0
11:26:25,619780.0,0.0,0.0
11:26:25,619783.0,0.0,0.0
11:26:25,619661.0,0.0,0.0
11:26:26,619548.0,0.0,0.0
11:26:26,619487.0,0.0,0.0
11:26:26,619404.0,0.0,0.0
11:26:26,619431.0,0.0,0.0
11:26:26,619378.0,0.0,0.0
11:26:26,619339.0,0.0,0.0
11:26:26,619241.0,0.0,0.0
11:26:26,619076.0,0.0,0.0
11:26:26,619048.0,0.0,0.0
11:26:26,619023.0,0.0,0.0
11:26:26,619029.0,0.0,0.0
11:26:26,619066.0,0.0,0.0
11:26:26,619014.0,0.0,0.0
11:26:26,619106.0,0.0,0.0
11:26:26,619102.0,0.0,0.0
11:26:26,619042.0,0.0,0.0
11:26:26,619127.0,0.0,0.0
11:26:26,619129.0,0.0,0.0
11:26:26,619223.0,0.0,0.0
11:26:26,619206.0,0.0,0.0
11:26:26,619259.0,0.0,0.0
11:26:26,619359.0,0.0,0.0
11:26:26,619386.0,0.0,0.0
11:26:26,619519.0,0.0,0.0
11:26:26,619578.0,0.0,0.0
11:26:26,619664.0,0.0,0.0
11:26:26,619783.0,0.0,0.0
11:26:26,619804.0,0.0,0.0
11:26:26,619931.0,0.0,0.0
11:26:26,619967.0,0.0,0.0
11:26:26,619976.0,0.0,0.0
11:26:26,619995.0,0.0,0.0
11:26:26,619867.0,0.0,0.0
11:26:26,619759.0,0.0,0.0
11:26:26,619584.0,0.0,0.0
11:26:26,619461.0,0.0,0.0
11:26:26,619352.0,0.0,0.0
11:26:26,619203.0,0.0,0.0
11:26:26,619158.0,0.0,0.0
11:26:26,619183.0,0.0,0.0
11:26:26,619234.0,0.0,0.0
11:26:26,619331.0,0.0,0.0
11:26:26,619480.0,0.0,0.0
11:26:26,619861.0,0.0,0.0
11:26:26,620179.0,0.0,0.0
11:26:26,620563.0,0.0,0.0
11:26:26,620889.0,0.0,0.0
11:26:26,621073.0,0.0,0.0
11:26:26,621342.0,0.0,0.0
11:26:26,621501.0,0.0,0.0
11:26:26,621489.0,0.0,0.0
11:26:26,621485.0,0.0,0.0
11:26:26,621326.0,0.0,0.0
11:26:26,621356.0,0.0,0.0
11:26:26,621577.0,0.0,0.0
11:26:26,621569.0,0.0,0.0
11:26:26,621399.0,0.0,0.0
11:26:26,621374.0,0.0,0.0
11:26:26,621641.0,0.0,0.0
11:26:26,622069.0,0.0,0.0
11:26:26,622041.0,0.0,0.0
11:26:26,622073.0,0.0,0.0
11:26:26,621933.0,0.0,0.0
11:26:26,622381.0,0.0,0.0
11:26:26,622483.0,0.0,0.0
11:26:26,622318.0,0.0,0.0
11:26:26,622103.0,0.0,0.0
11:26:26,622134.0,0.0,0.0
11:26:26,622499.0,0.0,0.0
11:26:26,622531.0,0.0,0.0
11:26:26,622574.0,0.0,0.0
11:26:26,622582.0,0.0,0.0
11:26:26,622413.0,0.0,0.0
11:26:26,622654.0,0.0,0.0
11:26:26,622934.0,0.0,0.0
11:26:26,622953.0,0.0,0.0
11:26:26,622978.0,0.0,0.0
11:26:26,622864.0,0.0,0.0
11:26:26,622882.0,0.0,0.0
11:26:26,622944.0,0.0,0.0
11:26:26,622946.0,0.0,0.0
11:26:26,622990.0,0.0,0.0
11:26:26,622858.0,0.0,0.0
11:26:26,622812.0,0.0,0.0
11:26:26,622756.0,0.0,0.0
11:26:26,622824.0,0.0,0.0
11:26:26,622843.0,0.0,0.0
11:26:26,622703.0,0.0,0.0
11:26:26,622793.0,0.0,0.0
11:26:26,622653.0,0.0,0.0
11:26:26,622597.0,0.0,0.0
11:26:26,622654.0,0.0,0.0
11:26:26,622593.0,0.0,0.0
11:26:26,622565.0,0.0,0.0
11:26:26,622400.0,0.0,0.0
11:26:26,622456.0,0.0,0.0
11:26:26,622584.0,0.0,0.0
11:26:26,622442.0,0.0,0.0
11:26:26,622322.0,0.0,0.0
11:26:26,622159.0,0.0,0.0
11:26:26,622160.0,0.0,0.0
11:26:26,622338.0,0.0,0.0
11:26:26,622413.0,0.0,0.0
11:26:26,622475.0,0.0,0.0
11:26:26,622316.0,0.0,0.0
11:26:26,622164.0,0.0,0.0
11:26:26,622030.0,0.0,0.0
11:26:26,621903.0,0.0,0.0
11:26:26,622024.0,0.0,0.0
11:26:26,621888.0,0.0,0.0
11:26:26,621769.0,0.0,0.0
11:26:26,621903.0,0.0,0.0
11:26:26,621781.0,0.0,0.0
11:26:26,621784.0,0.0,0.0
11:26:26,621799.0,0.0,0.0
11:26:26,622013.0,0.0,0.0
11:26:26,622312.0,0.0,0.0
11:26:26,622307.0,0.0,0.0
11:26:26,622587.0,0.0,0.0
11:26:26,622581.0,0.0,0.0
11:26:26,622633.0,0.0,0.0
11:26:26,622702.0,0.0,0.0
11:26:26,622523.0,0.0,0.0
11:26:26,622451.0,0.0,0.0
11:26:27,622397.0,0.0,0.0
11:26:27,622358.0,0.0,0.0
11:26:27,622312.0,0.0,0.0
11:26:27,622088.0,0.0,0.0
11:26:27,622159.0,0.0,0.0
11:26:27,622064.0,0.0,0.0
11:26:27,622272.0,0.0,0.0
11:26:27,622600.0,0.0,0.0
11:26:27,622498.0,0.0,0.0
11:26:27,622238.0,0.0,0.0
11:26:27,621962.0,0.0,0.0
11:26:27,621961.0,0.0,0.0
11:26:27,622033.0,0.0,0.0
11:26:27,621713.0,0.0,0.0
11:26:27,621981.0,0.0,0.0
11:26:27,622096.0,0.0,0.0
11:26:27,622213.0,0.0,0.0
11:26:27,622229.0,0.0,0.0
11:26:27,622101.0,0.0,0.0
11:26:27,622292.0,0.0,0.0
11:26:27,622241.0,0.0,0.0
11:26:27,622253.0,0.0,0.0
11:26:27,622196.0,0.0,0.0
11:26:27,621896.0,0.0,0.0
11:26:27,621924.0,0.0,0.0
11:26:27,621982.0,0.0,0.0
11:26:27,621989.0,0.0,0.0
11:26:27,621878.0,0.0,0.0
11:26:27,621775.0,0.0,0.0
11:26:27,621789.0,0.0,0.0
11:26:27,621656.0,0.0,0.0
11:26:27,621654.0,0.0,0.0
11:26:27,621694.0,0.0,0.0
11:26:27,621627.0,0.0,0.0
11:26:27,621694.0,0.0,0.0
11:26:27,621573.0,0.0,0.0
11:26:27,621554.0,0.0,0.0
11:26:27,621527.0,0.0,0.0
11:26:27,621436.0,0.0,0.0
11:26:27,621538.0,0.0,0.0
11:26:27,621452.0,0.0,0.0
11:26:27,621423.0,0.0,0.0
11:26:27,621456.0,0.0,0.0
11:26:27,621368.0,0.0,0.0
11:26:27,621519.0,0.0,0.0
11:26:27,621503.0,0.0,0.0
11:26:27,621546.0,0.0,0.0
11:26:27,621629.0,0.0,0.0
11:26:27,621608.0,0.0,0.0
11:26:27,621741.0,0.0,0.0
11:26:27,621673.0,0.0,0.0
11:26:27,621763.0,0.0,0.0
11:26:27,621903.0,0.0,0.0
11:26:27,621833.0,0.0,0.0
11:26:27,621934.0,0.0,0.0
11:26:27,621821.0,0.0,0.0
11:26:27,621784.0,0.0,0.0
11:26:27,621734.0,0.0,0.0
11:26:27,621593.0,0.0,0.0
11:26:27,621594.0,0.0,0.0
11:26:27,621512.0,0.0,0.0
11:26:27,621509.0,0.0,0.0
11:26:27,621551.0,0.0,0.0
11:26:27,621435.0,0.0,0.0
11:26:27,621530.0,0.0,0.0
11:26:27,621466.0,0.0,0.0
11:26:27,621461.0,0.0,0.0
11:26:27,621493.0,0.0,0.0
11:26:27,621568.0,0.0,0.0
11:26:27,621773.0,0.0,0.0
11:26:27,621744.0,0.0,0.0
11:26:27,621754.0,0.0,0.0
11:26:27,621731.0,0.0,0.0
11:26:27,621624.0,0.0,0.0
11:26:27,621749.0,0.0,0.0
11:26:27,621709.0,0.0,0.0
11:26:27,621752.0,0.0,0.0
11:26:27,621733.0,0.0,0.0
11:26:27,621614.0,0.0,0.0
11:26:27,621737.0,0.0,0.0
11:26:27,621620.0,0.0,0.0
11:26:27,621669.0,0.0,0.0
11:26:27,621723.0,0.0,0.0
11:26:27,621653.0,0.0,0.0
11:26:27,621748.0,0.0,0.0
11:26:27,621634.0,0.0,0.0
11:26:27,621652.0,0.0,0.0
11:26:27,621694.0,0.0,0.0
11:26:27,621662.0,0.0,0.0
11:26:27,621829.0,0.0,0.0
11:26:27,621623.0,0.0,0.0
11:26:27,621549.0,0.0,0.0
11:26:27,621530.0,0.0,0.0
11:26:27,621511.0,0.0,0.0
11:26:27,621642.0,0.0,0.0
11:26:27,621526.0,0.0,0.0
11:26:27,621591.0,0.0,0.0
11:26:27,621572.0,0.0,0.0
11:26:27,621487.0,0.0,0.0
11:26:27,621646.0,0.0,0.0
11:26:27,621559.0,0.0,0.0
11:26:27,621598.0,0.0,0.0
11:26:27,621615.0,0.0,0.0
11:26:27,621516.0,0.0,0.0
11:26:27,621634.0,0.0,0.0
11:26:27,621550.0,0.0,0.0
11:26:27,621591.0,0.0,0.0
11:26:27,621635.0,0.0,0.0
11:26:27,621558.0,0.0,0.0
11:26:27,621681.0,0.0,0.0
11:26:27,621585.0,0.0,0.0
11:26:27,621628.0,0.0,0.0
11:26:27,621636.0,0.0,0.0
11:26:27,621504.0,0.0,0.0
11:26:27,621536.0,0.0,0.0
11:26:27,621503.0,0.0,0.0
11:26:27,621809.0,0.0,0.0
11:26:27,621943.0,0.0,0.0
11:26:27,621762.0,0.0,0.0
11:26:27,621776.0,0.0,0.0
11:26:27,621624.0,0.0,0.0
11:26:27,621619.0,0.0,0.0
11:26:27,621632.0,0.0,0.0
11:26:27,621676.0,0.0,0.0
11:26:27,621823.0,0.0,0.0
11:26:28,621711.0,0.0,0.0
11:26:28,621778.0,0.0,0.0
11:26:28,621781.0,0.0,0.0
11:26:28,621653.0,0.0,0.0
11:26:28,621720.0,0.0,0.0
11:26:28,621679.0,0.0,0.0
11:26:28,621786.0,0.0,0.0
11:26:28,621783.0,0.0,0.0
11:26:28,621727.0,0.0,0.0
11:26:28,621826.0,0.0,0.0
11:26:28,621694.0,0.0,0.0
11:26:28,621680.0,0.0,0.0
11:26:28,621679.0,0.0,0.0
11:26:28,621553.0,0.0,0.0
11:26:28,621643.0,0.0,0.0
11:26:28,621528.0,0.0,0.0
11:26:28,621576.0,0.0,0.0
11:26:28,621588.0,0.0,0.0
11:26:28,621468.0,0.0,0.0
11:26:28,621556.0,0.0,0.0
11:26:28,621449.0,0.0,0.0
11:26:28,621521.0,0.0,0.0
11:26:28,621524.0,0.0,0.0
11:26:28,621450.0,0.0,0.0
11:26:28,621491.0,0.0,0.0
11:26:28,621375.0,0.0,0.0
11:26:28,621488.0,0.0,0.0
11:26:28,621501.0,0.0,0.0
11:26:28,621434.0,0.0,0.0
11:26:28,621476.0,0.0,0.0
11:26:28,621373.0,0.0,0.0
11:26:28,621442.0,0.0,0.0
11:26:28,621449.0,0.0,0.0
11:26:28,621349.0,0.0,0.0
11:26:28,621378.0,0.0,0.0
11:26:28,621200.0,0.0,0.0
11:26:28,621269.0,0.0,0.0
11:26:28,621225.0,0.0,0.0
11:26:28,621118.0,0.0,0.0
11:26:28,621186.0,0.0,0.0
11:26:28,621067.0,0.0,0.0
11:26:28,621046.0,0.0,0.0
11:26:28,620984.0,0.0,0.0
11:26:28,620933.0,0.0,0.0
11:26:28,621004.0,0.0,0.0
11:26:28,620894.0,0.0,0.0
11:26:28,620925.0,0.0,0.0
11:26:28,620886.0,0.0,0.0
11:26:28,620859.0,0.0,0.0
11:26:28,620926.0,0.0,0.0
11:26:28,620824.0,0.0,0.0
11:26:28,620858.0,0.0,0.0
11:26:28,620879.0,0.0,0.0
11:26:28,620876.0,0.0,0.0
11:26:28,620906.0,0.0,0.0
11:26:28,620857.0,0.0,0.0
11:26:28,620971.0,0.0,0.0
11:26:28,620978.0,0.0,0.0
11:26:28,620984.0,0.0,0.0
11:26:28,621059.0,0.0,0.0
11:26:28,620989.0,0.0,0.0
11:26:28,621006.0,0.0,0.0
11:26:28,620981.0,0.0,0.0
11:26:28,620953.0,0.0,0.0
11:26:28,621018.0,0.0,0.0
11:26:28,620974.0,0.0,0.0
11:26:28,621006.0,0.0,0.0
11:26:28,620959.0,0.0,0.0
11:26:28,620905.0,0.0,0.0
11:26:28,621025.0,0.0,0.0
11:26:28,621024.0,0.0,0.0
11:26:28,620975.0,0.0,0.0
11:26:28,620965.0,0.0,0.0
11:26:28,621005.0,0.0,0.0
11:26:28,621178.0,0.0,0.0
11:26:28,621163.0,0.0,0.0
11:26:28,621264.0,0.0,0.0
11:26:28,621275.0,0.0,0.0
11:26:28,621289.0,0.0,0.0
11:26:28,621331.0,0.0,0.0
11:26:28,621289.0,0.0,0.0
11:26:28,621376.0,0.0,0.0
11:26:28,621553.0,0.0,0.0
11:26:28,621599.0,0.0,0.0
11:26:28,621663.0,0.0,0.0
11:26:28,621522.0,0.0,0.0
11:26:28,621451.0,0.0,0.0
11:26:28,621439.0,0.0,0.0
11:26:28,621453.0,0.0,0.0
11:26:28,621484.0,0.0,0.0
11:26:28,621459.0,0.0,0.0
11:26:28,621491.0,0.0,0.0
11:26:28,621528.0,0.0,0.0
11:26:28,621512.0,0.0,0.0
11:26:28,621471.0,0.0,0.0
11:26:28,621273.0,0.0,0.0
11:26:28,621221.0,0.0,0.0
11:26:28,621216.0,0.0,0.0
11:26:28,621294.0,0.0,0.0
11:26:28,621481.0,0.0,0.0
11:26:28,621364.0,0.0,0.0
11:26:28,621507.0,0.0,0.0
11:26:28,621514.0,0.0,0.0
11:26:28,621493.0,0.0,0.0
11:26:28,621604.0,0.0,0.0
11:26:28,621466.0,0.0,0.0
11:26:28,621487.0,0.0,0.0
11:26:28,621382.0,0.0,0.0
11:26:28,621420.0,0.0,0.0
11:26:28,621749.0,0.0,0.0
11:26:28,621514.0,0.0,0.0
11:26:28,621436.0,0.0,0.0
11:26:28,621431.0,0.0,0.0
11:26:28,621374.0,0.0,0.0
11:26:28,621409.0,0.0,0.0
11:26:28,621197.0,0.0,0.0
11:26:28,621234.0,0.0,0.0
11:26:28,621231.0,0.0,0.0
11:26:28,621150.0,0.0,0.0
11:26:28,621129.0,0.0,0.0
11:26:28,620986.0,0.0,0.0
11:26:28,621133.0,0.0,0.0
11:26:28,621058.0,0.0,0.0
11:26:28,620940.0,0.0,0.0
11:26:28,621130.0,0.0,0.0
11:26:29,620986.0,0.0,0.0
11:26:29,620989.0,0.0,0.0
11:26:29,620875.0,0.0,0.0
11:26:29,620913.0,0.0,0.0
11:26:29,621186.0,0.0,0.0
11:26:29,621038.0,0.0,0.0
11:26:29,621077.0,0.0,0.0
11:26:29,620935.0,0.0,0.0
11:26:29,620671.0,0.0,0.0
11:26:29,620826.0,0.0,0.0
11:26:29,620714.0,0.0,0.0
11:26:29,620774.0,0.0,0.0
11:26:29,620849.0,0.0,0.0
11:26:29,620853.0,0.0,0.0
11:26:29,621000.0,0.0,0.0
11:26:29,620729.0,0.0,0.0
11:26:29,620788.0,0.0,0.0
11:26:29,620769.0,0.0,0.0
11:26:29,620628.0,0.0,0.0
11:26:29,620693.0,0.0,0.0
11:26:29,620449.0,0.0,0.0
11:26:29,620550.0,0.0,0.0
11:26:29,620514.0,0.0,0.0
11:26:29,620475.0,0.0,0.0
11:26:29,620637.0,0.0,0.0
11:26:29,620562.0,0.0,0.0
11:26:29,620662.0,0.0,0.0
11:26:29,620576.0,0.0,0.0
11:26:29,620469.0,0.0,0.0
11:26:29,620564.0,0.0,0.0
11:26:29,620426.0,0.0,0.0
11:26:29,620478.0,0.0,0.0
11:26:29,620474.0,0.0,0.0
11:26:29,620426.0,0.0,0.0
11:26:29,620518.0,0.0,0.0
11:26:29,620250.0,0.0,0.0
11:26:29,620317.0,0.0,0.0
11:26:29,620321.0,0.0,0.0
11:26:29,620306.0,0.0,0.0
11:26:29,620374.0,0.0,0.0
11:26:29,620188.0,0.0,0.0
11:26:29,620269.0,0.0,0.0
11:26:29,620283.0,0.0,0.0
11:26:29,620298.0,0.0,0.0
11:26:29,620479.0,0.0,0.0
11:26:29,620359.0,0.0,0.0
11:26:29,620394.0,0.0,0.0
11:26:29,620282.0,0.0,0.0
11:26:29,620250.0,0.0,0.0
11:26:29,620371.0,0.0,0.0
11:26:29,620238.0,0.0,0.0
11:26:29,620421.0,0.0,0.0
11:26:29,620400.0,0.0,0.0
11:26:29,620319.0,0.0,0.0
11:26:29,620532.0,0.0,0.0
11:26:29,620321.0,0.0,0.0
11:26:29,620328.0,0.0,0.0
11:26:29,620508.0,0.0,0.0
11:26:29,620549.0,0.0,0.0
11:26:29,620738.0,0.0,0.0
11:26:29,620589.0,0.0,0.0
11:26:29,620690.0,0.0,0.0
11:26:29,620644.0,0.0,0.0
11:26:29,620562.0,0.0,0.0
11:26:29,620744.0,0.0,0.0
11:26:29,620825.0,0.0,0.0
11:26:29,620718.0,0.0,0.0
11:26:29,620574.0,0.0,0.0
11:26:29,620596.0,0.0,0.0
11:26:29,620708.0,0.0,0.0
11:26:29,620574.0,0.0,0.0
11:26:29,620808.0,0.0,0.0
11:26:29,620719.0,0.0,0.0
11:26:29,620724.0,0.0,0.0
11:26:29,620953.0,0.0,0.0
11:26:29,620858.0,0.0,0.0
11:26:29,620969.0,0.0,0.0
11:26:29,620826.0,0.0,0.0
11:26:29,620892.0,0.0,0.0
11:26:29,621085.0,0.0,0.0
11:26:29,621034.0,0.0,0.0
11:26:29,621088.0,0.0,0.0
11:26:29,620986.0,0.0,0.0
11:26:29,620869.0,0.0,0.0
11:26:29,621065.0,0.0,0.0
11:26:29,621188.0,0.0,0.0
11:26:29,621280.0,0.0,0.0
11:26:29,621140.0,0.0,0.0
11:26:29,620869.0,0.0,0.0
11:26:29,620937.0,0.0,0.0
11:26:29,621011.0,0.0,0.0
11:26:29,621102.0,0.0,0.0
11:26:29,621136.0,0.0,0.0
11:26:29,621057.0,0.0,0.0
11:26:29,621075.0,0.0,0.0
11:26:29,620919.0,0.0,0.0
11:26:29,620943.0,0.0,0.0
11:26:29,620906.0,0.0,0.0
11:26:29,620823.0,0.0,0.0
11:26:29,620799.0,0.0,0.0
11:26:29,620669.0,0.0,0.0
11:26:29,620687.0,0.0,0.0
11:26:29,620554.0,0.0,0.0
11:26:29,620514.0,0.0,0.0
11:26:29,620566.0,0.0,0.0
11:26:29,620324.0,0.0,0.0
11:26:29,620511.0,0.0,0.0
11:26:29,620624.0,0.0,0.0
11:26:29,620725.0,0.0,0.0
11:26:29,620808.0,0.0,0.0
11:26:29,620571.0,0.0,0.0
11:26:29,620630.0,0.0,0.0
11:26:29,620486.0,0.0,0.0
11:26:29,620469.0,0.0,0.0
11:26:29,620640.0,0.0,0.0
11:26:29,620574.0,0.0,0.0
11:26:29,620706.0,0.0,0.0
11:26:29,620678.0,0.0,0.0
11:26:29,620691.0,0.0,0.0
11:26:29,620801.0,0.0,0.0
11:26:29,620542.0,0.0,0.0
11:26:29,620496.0,0.0,0.0
11:26:29,620331.0,0.0,0.0
11:26:29,620426.0,0.0,0.0
11:26:29,620668.0,0.0,0.0
11:26:30,620536.0,0.0,0.0
11:26:30,620641.0,0.0,0.0
11:26:30,620613.0,0.0,0.0
11:26:30,620587.0,0.0,0.0
11:26:30,620681.0,0.0,0.0
11:26:30,620446.0,0.0,0.0
11:26:30,620486.0,0.0,0.0
11:26:30,620431.0,0.0,0.0
11:26:30,620472.0,0.0,0.0
11:26:30,620561.0,0.0,0.0
11:26:30,620476.0,0.0,0.0
11:26:30,620703.0,0.0,0.0
11:26:30,620654.0,0.0,0.0
11:26:30,620618.0,0.0,0.0
11:26:30,620843.0,0.0,0.0
11:26:30,621004.0,0.0,0.0
11:26:30,621367.0,0.0,0.0
11:26:30,621388.0,0.0,0.0
11:26:30,621305.0,0.0,0.0
11:26:30,621416.0,0.0,0.0
11:26:30,621249.0,0.0,0.0
11:26:30,621359.0,0.0,0.0
11:26:30,621377.0,0.0,0.0
11:26:30,621178.0,0.0,0.0
11:26:30,621160.0,0.0,0.0
11:26:30,620923.0,0.0,0.0
11:26:30,620903.0,0.0,0.0
11:26:30,620828.0,0.0,0.0
11:26:30,620799.0,0.0,0.0
11:26:30,620923.0,0.0,0.0
11:26:30,620794.0,0.0,0.0
11:26:30,620836.0,0.0,0.0
11:26:30,620739.0,0.0,0.0
11:26:30,620686.0,0.0,0.0
11:26:30,620711.0,0.0,0.0
11:26:30,620606.0,0.0,0.0
11:26:30,620698.0,0.0,0.0
11:26:30,620614.0,0.0,0.0
11:26:30,620680.0,0.0,0.0
11:26:30,620822.0,0.0,0.0
11:26:30,620719.0,0.0,0.0
11:26:30,620884.0,0.0,0.0
11:26:30,620859.0,0.0,0.0
11:26:30,620912.0,0.0,0.0
11:26:30,621074.0,0.0,0.0
11:26:30,621031.0,0.0,0.0
11:26:30,621183.0,0.0,0.0
11:26:30,621221.0,0.0,0.0
11:26:30,621367.0,0.0,0.0
11:26:30,621494.0,0.0,0.0
11:26:30,621411.0,0.0,0.0
11:26:30,621556.0,0.0,0.0
11:26:30,621507.0,0.0,0.0
11:26:30,621407.0,0.0,0.0
11:26:30,621351.0,0.0,0.0
11:26:30,621119.0,0.0,0.0
11:26:30,621174.0,0.0,0.0
11:26:30,621049.0,0.0,0.0
11:26:30,620933.0,0.0,0.0
11:26:30,620871.0,0.0,0.0
11:26:30,620638.0,0.0,0.0
11:26:30,620574.0,0.0,0.0
11:26:30,620419.0,0.0,0.0
11:26:30,620339.0,0.0,0.0
11:26:30,620268.0,0.0,0.0
11:26:30,620148.0,0.0,0.0
11:26:30,620229.0,0.0,0.0
11:26:30,620088.0,0.0,0.0
11:26:30,620098.0,0.0,0.0
11:26:30,620167.0,0.0,0.0
11:26:30,620042.0,0.0,0.0
11:26:30,620050.0,0.0,0.0
11:26:30,620030.0,0.0,0.0
11:26:30,620106.0,0.0,0.0
11:26:30,620192.0,0.0,0.0
11:26:30,620057.0,0.0,0.0
11:26:30,620153.0,0.0,0.0
11:26:30,620141.0,0.0,0.0
11:26:30,620164.0,0.0,0.0
11:26:30,620189.0,0.0,0.0
11:26:30,620024.0,0.0,0.0
11:26:30,619988.0,0.0,0.0
11:26:30,619780.0,0.0,0.0
11:26:30,619925.0,0.0,0.0
11:26:30,619996.0,0.0,0.0
11:26:30,619864.0,0.0,0.0
11:26:30,619861.0,0.0,0.0
11:26:30,619739.0,0.0,0.0
11:26:30,619911.0,0.0,0.0
11:26:30,619988.0,0.0,0.0
11:26:30,619960.0,0.0,0.0
11:26:30,620043.0,0.0,0.0
11:26:30,620024.0,0.0,0.0
11:26:30,620052.0,0.0,0.0
11:26:30,620106.0,0.0,0.0
11:26:30,619983.0,0.0,0.0
11:26:30,619993.0,0.0,0.0
11:26:30,619891.0,0.0,0.0
11:26:30,619910.0,0.0,0.0
11:26:30,619973.0,0.0,0.0
11:26:30,619804.0,0.0,0.0
11:26:30,619764.0,0.0,0.0
11:26:30,619754.0,0.0,0.0
11:26:30,619883.0,0.0,0.0
11:26:30,619891.0,0.0,0.0
11:26:30,619783.0,0.0,0.0
11:26:30,619819.0,0.0,0.0
11:26:30,619802.0,0.0,0.0
11:26:30,619839.0,0.0,0.0
11:26:30,619831.0,0.0,0.0
11:26:30,619938.0,0.0,0.0
11:26:30,620106.0,0.0,0.0
11:26:30,620037.0,0.0,0.0
11:26:30,620020.0,0.0,0.0
11:26:30,620026.0,0.0,0.0
11:26:30,619965.0,0.0,0.0
11:26:30,620030.0,0.0,0.0
11:26:30,620018.0,0.0,0.0
11:26:30,620079.0,0.0,0.0
11:26:30,620132.0,0.0,0.0
11:26:30,620089.0,0.0,0.0
11:26:30,620149.0,0.0,0.0
11:26:30,620120.0,0.0,0.0
11:26:30,620005.0,0.0,0.0
11:26:30,620067.0,0.0,0.0
11:26:31,620049.0,0.0,0.0
11:26:31,620151.0,0.0,0.0
11:26:31,620195.0,0.0,0.0
11:26:31,620205.0,0.0,0.0
11:26:31,620222.0,0.0,0.0
11:26:31,620183.0,0.0,0.0
11:26:31,620242.0,0.0,0.0
11:26:31,620224.0,0.0,0.0
11:26:31,620163.0,0.0,0.0
11:26:31,620166.0,0.0,0.0
11:26:31,620086.0,0.0,0.0
11:26:31,620111.0,0.0,0.0
11:26:31,620006.0,0.0,0.0
11:26:31,619906.0,0.0,0.0
11:26:31,619910.0,0.0,0.0
11:26:31,619917.0,0.0,0.0
11:26:31,619971.0,0.0,0.0
11:26:31,619897.0,0.0,0.0
11:26:31,619932.0,0.0,0.0
11:26:31,619969.0,0.0,0.0
11:26:31,619964.0,0.0,0.0
11:26:31,620064.0,0.0,0.0
11:26:31,619879.0,0.0,0.0
11:26:31,619798.0,0.0,0.0
11:26:31,619851.0,0.0,0.0
11:26:31,619985.0,0.0,0.0
11:26:31,620172.0,0.0,0.0
11:26:31,620032.0,0.0,0.0
11:26:31,619918.0,0.0,0.0
11:26:31,619900.0,0.0,0.0
11:26:31,619859.0,0.0,0.0
11:26:31,619943.0,0.0,0.0
11:26:31,619836.0,0.0,0.0
11:26:31,619808.0,0.0,0.0
11:26:31,619973.0,0.0,0.0
11:26:31,619996.0,0.0,0.0
11:26:31,620189.0,0.0,0.0
11:26:31,620170.0,0.0,0.0
11:26:31,620178.0,0.0,0.0
11:26:31,620241.0,0.0,0.0
11:26:31,620216.0,0.0,0.0
11:26:31,620335.0,0.0,0.0
11:26:31,620273.0,0.0,0.0
11:26:31,620219.0,0.0,0.0
11:26:31,620186.0,0.0,0.0
11:26:31,620129.0,0.0,0.0
11:26:31,620200.0,0.0,0.0
11:26:31,620112.0,0.0,0.0
11:26:31,620099.0,0.0,0.0
11:26:31,620059.0,0.0,0.0
11:26:31,619964.0,0.0,0.0
11:26:31,620044.0,0.0,0.0
11:26:31,619954.0,0.0,0.0
11:26:31,619931.0,0.0,0.0
11:26:31,619894.0,0.0,0.0
11:26:31,619772.0,0.0,0.0
11:26:31,619804.0,0.0,0.0
11:26:31,619659.0,0.0,0.0
11:26:31,619674.0,0.0,0.0
11:26:31,619702.0,0.0,0.0
11:26:31,619614.0,0.0,0.0
11:26:31,619671.0,0.0,0.0
11:26:31,619429.0,0.0,0.0
11:26:31,619376.0,0.0,0.0
11:26:31,619544.0,0.0,0.0
11:26:31,619794.0,0.0,0.0
11:26:31,620153.0,0.0,0.0
11:26:31,620158.0,0.0,0.0
11:26:31,620217.0,0.0,0.0
11:26:31,620241.0,0.0,0.0
11:26:31,620132.0,0.0,0.0
11:26:31,620207.0,0.0,0.0
11:26:31,620049.0,0.0,0.0
11:26:31,620056.0,0.0,0.0
11:26:31,620027.0,0.0,0.0
11:26:31,619926.0,0.0,0.0
11:26:31,620050.0,0.0,0.0
11:26:31,619943.0,0.0,0.0
11:26:31,619946.0,0.0,0.0
11:26:31,619964.0,0.0,0.0
11:26:31,619878.0,0.0,0.0
11:26:31,619979.0,0.0,0.0
11:26:31,619871.0,0.0,0.0
11:26:31,619914.0,0.0,0.0
11:26:31,619954.0,0.0,0.0
11:26:31,619876.0,0.0,0.0
11:26:31,620012.0,0.0,0.0
11:26:31,619918.0,0.0,0.0
11:26:31,619957.0,0.0,0.0
11:26:31,619984.0,0.0,0.0
11:26:31,619881.0,0.0,0.0
11:26:31,619978.0,0.0,0.0
11:26:31,619872.0,0.0,0.0
11:26:31,619925.0,0.0,0.0
11:26:31,619948.0,0.0,0.0
11:26:31,619846.0,0.0,0.0
11:26:31,619924.0,0.0,0.0
11:26:31,619794.0,0.0,0.0
11:26:31,619816.0,0.0,0.0
11:26:31,619827.0,0.0,0.0
11:26:31,619753.0,0.0,0.0
11:26:31,619868.0,0.0,0.0
11:26:31,619691.0,0.0,0.0
11:26:31,619759.0,0.0,0.0
11:26:31,619789.0,0.0,0.0
11:26:31,619696.0,0.0,0.0
11:26:31,619823.0,0.0,0.0
11:26:31,619736.0,0.0,0.0
11:26:31,619826.0,0.0,0.0
11:26:31,619822.0,0.0,0.0
11:26:31,619758.0,0.0,0.0
11:26:31,619906.0,0.0,0.0
11:26:31,619806.0,0.0,0.0
11:26:31,619869.0,0.0,0.0
11:26:31,619876.0,0.0,0.0
11:26:31,619790.0,0.0,0.0
11:26:31,619950.0,0.0,0.0
11:26:31,619844.0,0.0,0.0
11:26:31,619916.0,0.0,0.0
11:26:31,619944.0,0.0,0.0
11:26:31,619848.0,0.0,0.0
11:26:31,619988.0,0.0,0.0
11:26:31,619906.0,0.0,0.0
11:26:31,619953.0,0.0,0.0
11:26:31,619973.0,0.0,0.0
11:26:32,619904.0,0.0,0.0
11:26:32,620057.0,0.0,0.0
11:26:32,619950.0,0.0,0.0
11:26:32,620018.0,0.0,0.0
11:26:32,620042.0,0.0,0.0
11:26:32,619957.0,0.0,0.0
11:26:32,620077.0,0.0,0.0
11:26:32,619973.0,0.0,0.0
11:26:32,620105.0,0.0,0.0
11:26:32,620136.0,0.0,0.0
11:26:32,620049.0,0.0,0.0
11:26:32,620175.0,0.0,0.0
11:26:32,620059.0,0.0,0.0
11:26:32,620156.0,0.0,0.0
11:26:32,620167.0,0.0,0.0
11:26:32,620069.0,0.0,0.0
11:26:32,620237.0,0.0,0.0
11:26:32,620121.0,0.0,0.0
11:26:32,620186.0,0.0,0.0
11:26:32,620207.0,0.0,0.0
11:26:32,620126.0,0.0,0.0
11:26:32,620267.0,0.0,0.0
11:26:32,620144.0,0.0,0.0
11:26:32,620221.0,0.0,0.0
11:26:32,620245.0,0.0,0.0
11:26:32,620200.0,0.0,0.0
11:26:32,620318.0,0.0,0.0
11:26:32,620213.0,0.0,0.0
11:26:32,620314.0,0.0,0.0
11:26:32,620314.0,0.0,0.0
11:26:32,620223.0,0.0,0.0
11:26:32,620393.0,0.0,0.0
11:26:32,620241.0,0.0,0.0
11:26:32,620253.0,0.0,0.0
11:26:32,620201.0,0.0,0.0
11:26:32,620209.0,0.0,0.0
11:26:32,620523.0,0.0,0.0
11:26:32,620489.0,0.0,0.0
11:26:32,620493.0,0.0,0.0
11:26:32,620404.0,0.0,0.0
11:26:32,620284.0,0.0,0.0
11:26:32,620378.0,0.0,0.0
11:26:32,620322.0,0.0,0.0
11:26:32,620349.0,0.0,0.0
11:26:32,620388.0,0.0,0.0
11:26:32,620351.0,0.0,0.0
11:26:32,620447.0,0.0,0.0
11:26:32,620393.0,0.0,0.0
11:26:32,620458.0,0.0,0.0
11:26:32,620471.0,0.0,0.0
11:26:32,620421.0,0.0,0.0
11:26:32,620491.0,0.0,0.0
11:26:32,620386.0,0.0,0.0
11:26:32,620439.0,0.0,0.0
11:26:32,620463.0,0.0,0.0
11:26:32,620423.0,0.0,0.0
11:26:32,620494.0,0.0,0.0
11:26:32,620390.0,0.0,0.0
11:26:32,620486.0,0.0,0.0
11:26:32,620474.0,0.0,0.0
11:26:32,620409.0,0.0,0.0
11:26:32,620515.0,0.0,0.0
11:26:32,620404.0,0.0,0.0
11:26:32,620496.0,0.0,0.0
11:26:32,620488.0,0.0,0.0
11:26:32,620445.0,0.0,0.0
11:26:32,620565.0,0.0,0.0
11:26:32,620446.0,0.0,0.0
11:26:32,620487.0,0.0,0.0
11:26:32,620476.0,0.0,0.0
11:26:32,620445.0,0.0,0.0
11:26:32,620551.0,0.0,0.0
11:26:32,620455.0,0.0,0.0
11:26:32,620582.0,0.0,0.0
11:26:32,620572.0,0.0,0.0
11:26:32,620508.0,0.0,0.0
11:26:32,620598.0,0.0,0.0
11:26:32,620470.0,0.0,0.0
11:26:32,620556.0,0.0,0.0
11:26:32,620516.0,0.0,0.0
11:26:32,620465.0,0.0,0.0
11:26:32,620603.0,0.0,0.0
11:26:32,620506.0,0.0,0.0
11:26:32,620588.0,0.0,0.0
11:26:32,620552.0,0.0,0.0
11:26:32,620463.0,0.0,0.0
11:26:32,620576.0,0.0,0.0
11:26:32,620419.0,0.0,0.0
11:26:32,620460.0,0.0,0.0
11:26:32,620408.0,0.0,0.0
11:26:32,620334.0,0.0,0.0
11:26:32,620526.0,0.0,0.0
11:26:32,620496.0,0.0,0.0
11:26:32,620669.0,0.0,0.0
11:26:32,620763.0,0.0,0.0
11:26:32,620814.0,0.0,0.0
11:26:32,621006.0,0.0,0.0
11:26:32,620933.0,0.0,0.0
11:26:32,621036.0,0.0,0.0
11:26:32,621034.0,0.0,0.0
11:26:32,620950.0,0.0,0.0
11:26:32,621054.0,0.0,0.0
11:26:32,620883.0,0.0,0.0
11:26:32,620937.0,0.0,0.0
11:26:32,620905.0,0.0,0.0
11:26:32,620854.0,0.0,0.0
11:26:32,621001.0,0.0,0.0
11:26:32,620904.0,0.0,0.0
11:26:32,621041.0,0.0,0.0
11:26:32,621039.0,0.0,0.0
11:26:32,620969.0,0.0,0.0
11:26:32,621071.0,0.0,0.0
11:26:32,620993.0,0.0,0.0
11:26:32,621049.0,0.0,0.0
11:26:32,621073.0,0.0,0.0
11:26:32,621024.0,0.0,0.0
11:26:32,621103.0,0.0,0.0
11:26:32,621038.0,0.0,0.0
11:26:32,621063.0,0.0,0.0
11:26:32,621036.0,0.0,0.0
11:26:32,621005.0,0.0,0.0
11:26:32,621063.0,0.0,0.0
11:26:32,620963.0,0.0,0.0
11:26:32,621045.0,0.0,0.0
11:26:32,621031.0,0.0,0.0
11:26:33,620981.0,0.0,0.0
11:26:33,621093.0,0.0,0.0
11:26:33,620981.0,0.0,0.0
11:26:33,621122.0,0.0,0.0
11:26:33,621123.0,0.0,0.0
11:26:33,621073.0,0.0,0.0
11:26:33,621183.0,0.0,0.0
11:26:33,621047.0,0.0,0.0
11:26:33,621161.0,0.0,0.0
11:26:33,621148.0,0.0,0.0
11:26:33,621128.0,0.0,0.0
11:26:33,621254.0,0.0,0.0
11:26:33,621146.0,0.0,0.0
11:26:33,621283.0,0.0,0.0
11:26:33,621288.0,0.0,0.0
11:26:33,621270.0,0.0,0.0
11:26:33,621407.0,0.0,0.0
11:26:33,621303.0,0.0,0.0
11:26:33,621430.0,0.0,0.0
11:26:33,621434.0,0.0,0.0
11:26:33,621456.0,0.0,0.0
11:26:33,621600.0,0.0,0.0
11:26:33,621539.0,0.0,0.0
11:26:33,621703.0,0.0,0.0
11:26:33,621703.0,0.0,0.0
11:26:33,621667.0,0.0,0.0
11:26:33,621794.0,0.0,0.0
11:26:33,621628.0,0.0,0.0
11:26:33,621761.0,0.0,0.0
11:26:33,621733.0,0.0,0.0
11:26:33,621684.0,0.0,0.0
11:26:33,621851.0,0.0,0.0
11:26:33,621792.0,0.0,0.0
11:26:33,621971.0,0.0,0.0
11:26:33,621970.0,0.0,0.0
11:26:33,621998.0,0.0,0.0
11:26:33,622178.0,0.0,0.0
11:26:33,622072.0,0.0,0.0
11:26:33,622203.0,0.0,0.0
11:26:33,622190.0,0.0,0.0
11:26:33,622151.0,0.0,0.0
11:26:33,622256.0,0.0,0.0
11:26:33,622094.0,0.0,0.0
11:26:33,622191.0,0.0,0.0
11:26:33,622108.0,0.0,0.0
11:26:33,622108.0,0.0,0.0
11:26:33,622393.0,0.0,0.0
11:26:33,622329.0,0.0,0.0
11:26:33,622435.0,0.0,0.0
11:26:33,622361.0,0.0,0.0
11:26:33,622288.0,0.0,0.0
11:26:33,622429.0,0.0,0.0
11:26:33,622318.0,0.0,0.0
11:26:33,622466.0,0.0,0.0
11:26:33,622444.0,0.0,0.0
11:26:33,622414.0,0.0,0.0
11:26:33,622564.0,0.0,0.0
11:26:33,622425.0,0.0,0.0
11:26:33,622543.0,0.0,0.0
11:26:33,622508.0,0.0,0.0
11:26:33,622468.0,0.0,0.0
11:26:33,622608.0,0.0,0.0
11:26:33,622536.0,0.0,0.0
11:26:33,622710.0,0.0,0.0
11:26:33,622692.0,0.0,0.0
11:26:33,622693.0,0.0,0.0
11:26:33,622807.0,0.0,0.0
11:26:33,622628.0,0.0,0.0
11:26:33,622748.0,0.0,0.0
11:26:33,622702.0,0.0,0.0
11:26:33,622637.0,0.0,0.0
11:26:33,622713.0,0.0,0.0
11:26:33,622522.0,0.0,0.0
11:26:33,622628.0,0.0,0.0
11:26:33,622544.0,0.0,0.0
11:26:33,622509.0,0.0,0.0
11:26:33,622609.0,0.0,0.0
11:26:33,622450.0,0.0,0.0
11:26:33,622552.0,0.0,0.0
11:26:33,622483.0,0.0,0.0
11:26:33,622441.0,0.0,0.0
11:26:33,622532.0,0.0,0.0
11:26:33,622339.0,0.0,0.0
11:26:33,622450.0,0.0,0.0
11:26:33,622368.0,0.0,0.0
11:26:33,622334.0,0.0,0.0
11:26:33,622511.0,0.0,0.0
11:26:33,622399.0,0.0,0.0
11:26:33,622557.0,0.0,0.0
11:26:33,622513.0,0.0,0.0
11:26:33,622483.0,0.0,0.0
11:26:33,622569.0,0.0,0.0
11:26:33,622415.0,0.0,0.0
11:26:33,622521.0,0.0,0.0
11:26:33,622470.0,0.0,0.0
11:26:33,622438.0,0.0,0.0
11:26:33,622539.0,0.0,0.0
11:26:33,622421.0,0.0,0.0
11:26:33,622558.0,0.0,0.0
11:26:33,622493.0,0.0,0.0
11:26:33,622479.0,0.0,0.0
11:26:33,622594.0,0.0,0.0
11:26:33,622460.0,0.0,0.0
11:26:33,622582.0,0.0,0.0
11:26:33,622494.0,0.0,0.0
11:26:33,622431.0,0.0,0.0
11:26:33,622527.0,0.0,0.0
11:26:33,622326.0,0.0,0.0
11:26:33,622471.0,0.0,0.0
11:26:33,622398.0,0.0,0.0
11:26:33,622346.0,0.0,0.0
11:26:33,622441.0,0.0,0.0
11:26:33,622278.0,0.0,0.0
11:26:33,622435.0,0.0,0.0
11:26:33,622356.0,0.0,0.0
11:26:33,622291.0,0.0,0.0
11:26:33,622408.0,0.0,0.0
11:26:33,622262.0,0.0,0.0
11:26:33,622403.0,0.0,0.0
11:26:33,622316.0,0.0,0.0
11:26:33,622286.0,0.0,0.0
11:26:33,622398.0,0.0,0.0
11:26:33,622271.0,0.0,0.0
11:26:33,622431.0,0.0,0.0
11:26:33,622343.0,0.0,0.0
11:26:34,622314.0,0.0,0.0
11:26:34,622424.0,0.0,0.0
11:26:34,622279.0,0.0,0.0
11:26:34,622434.0,0.0,0.0
11:26:34,622359.0,0.0,0.0
11:26:34,622331.0,0.0,0.0
11:26:34,622449.0,0.0,0.0
11:26:34,622274.0,0.0,0.0
11:26:34,622379.0,0.0,0.0
11:26:34,622317.0,0.0,0.0
11:26:34,622318.0,0.0,0.0
11:26:34,622426.0,0.0,0.0
11:26:34,622246.0,0.0,0.0
11:26:34,622401.0,0.0,0.0
11:26:34,622325.0,0.0,0.0
11:26:34,622316.0,0.0,0.0
11:26:34,622399.0,0.0,0.0
11:26:34,622275.0,0.0,0.0
11:26:34,622444.0,0.0,0.0
11:26:34,622401.0,0.0,0.0
11:26:34,622398.0,0.0,0.0
11:26:34,622575.0,0.0,0.0
11:26:34,622508.0,0.0,0.0
11:26:34,622584.0,0.0,0.0
11:26:34,622812.0,0.0,0.0
11:26:34,622626.0,0.0,0.0
11:26:34,622688.0,0.0,0.0
11:26:34,622620.0,0.0,0.0
11:26:34,622549.0,0.0,0.0
11:26:34,622572.0,0.0,0.0
11:26:34,622471.0,0.0,0.0
11:26:34,622496.0,0.0,0.0
11:26:34,622401.0,0.0,0.0
11:26:34,622424.0,0.0,0.0
11:26:34,622337.0,0.0,0.0
11:26:34,622313.0,0.0,0.0
11:26:34,622384.0,0.0,0.0
11:26:34,622274.0,0.0,0.0
11:26:34,622412.0,0.0,0.0
11:26:34,622364.0,0.0,0.0
11:26:34,622394.0,0.0,0.0
11:26:34,622446.0,0.0,0.0
11:26:34,622311.0,0.0,0.0
11:26:34,622480.0,0.0,0.0
11:26:34,622438.0,0.0,0.0
11:26:34,622441.0,0.0,0.0
11:26:34,622510.0,0.0,0.0
11:26:34,622391.0,0.0,0.0
11:26:34,622556.0,0.0,0.0
11:26:34,622476.0,0.0,0.0
11:26:34,622480.0,0.0,0.0
11:26:34,622564.0,0.0,0.0
11:26:34,622423.0,0.0,0.0
11:26:34,622581.0,0.0,0.0
11:26:34,622483.0,0.0,0.0
11:26:34,622434.0,0.0,0.0
11:26:34,622474.0,0.0,0.0
11:26:34,622343.0,0.0,0.0
11:26:34,622559.0,0.0,0.0
11:26:34,622551.0,0.0,0.0
11:26:34,622521.0,0.0,0.0
11:26:34,622519.0,0.0,0.0
11:26:34,622314.0,0.0,0.0
11:26:34,622427.0,0.0,0.0
11:26:34,622329.0,0.0,0.0
11:26:34,622290.0,0.0,0.0
11:26:34,622358.0,0.0,0.0
11:26:34,622189.0,0.0,0.0
11:26:34,622290.0,0.0,0.0
11:26:34,622158.0,0.0,0.0
11:26:34,622066.0,0.0,0.0
11:26:34,622048.0,0.0,0.0
11:26:34,621818.0,0.0,0.0
11:26:34,622008.0,0.0,0.0
11:26:34,622044.0,0.0,0.0
11:26:34,622164.0,0.0,0.0
11:26:34,622359.0,0.0,0.0
11:26:34,622229.0,0.0,0.0
11:26:34,622343.0,0.0,0.0
11:26:34,622189.0,0.0,0.0
11:26:34,622164.0,0.0,0.0
11:26:34,622194.0,0.0,0.0
11:26:34,621982.0,0.0,0.0
11:26:34,622055.0,0.0,0.0
11:26:34,621905.0,0.0,0.0
11:26:34,621864.0,0.0,0.0
11:26:34,621928.0,0.0,0.0
11:26:34,621777.0,0.0,0.0
11:26:34,621898.0,0.0,0.0
11:26:34,621772.0,0.0,0.0
11:26:34,621764.0,0.0,0.0
11:26:34,621871.0,0.0,0.0
11:26:34,621739.0,0.0,0.0
11:26:34,621879.0,0.0,0.0
11:26:34,621768.0,0.0,0.0
11:26:34,621775.0,0.0,0.0
11:26:34,621866.0,0.0,0.0
11:26:34,621732.0,0.0,0.0
11:26:34,621892.0,0.0,0.0
11:26:34,621789.0,0.0,0.0
11:26:34,621784.0,0.0,0.0
11:26:34,621878.0,0.0,0.0
11:26:34,621765.0,0.0,0.0
11:26:34,621880.0,0.0,0.0
11:26:34,621758.0,0.0,0.0
11:26:34,621764.0,0.0,0.0
11:26:34,621815.0,0.0,0.0
11:26:34,621675.0,0.0,0.0
11:26:34,621789.0,0.0,0.0
11:26:34,621692.0,0.0,0.0
11:26:34,621694.0,0.0,0.0
11:26:34,621728.0,0.0,0.0
11:26:34,621613.0,0.0,0.0
11:26:34,621753.0,0.0,0.0
11:26:34,621659.0,0.0,0.0
11:26:34,621687.0,0.0,0.0
11:26:34,621769.0,0.0,0.0
11:26:34,621626.0,0.0,0.0
11:26:34,621744.0,0.0,0.0
11:26:34,621690.0,0.0,0.0
11:26:34,621731.0,0.0,0.0
11:26:34,621799.0,0.0,0.0
11:26:34,621697.0,0.0,0.0
11:26:34,621827.0,0.0,0.0
11:26:34,621731.0,0.0,0.0
11:26:35,621783.0,0.0,0.0
11:26:35,621857.0,0.0,0.0
11:26:35,621708.0,0.0,0.0
11:26:35,621879.0,0.0,0.0
11:26:35,621786.0,0.0,0.0
11:26:35,621836.0,0.0,0.0
11:26:35,621953.0,0.0,0.0
11:26:35,621835.0,0.0,0.0
11:26:35,621997.0,0.0,0.0
11:26:35,621886.0,0.0,0.0
11:26:35,621902.0,0.0,0.0
11:26:35,621952.0,0.0,0.0
11:26:35,621808.0,0.0,0.0
11:26:35,621969.0,0.0,0.0
11:26:35,621836.0,0.0,0.0
11:26:35,621859.0,0.0,0.0
11:26:35,621912.0,0.0,0.0
11:26:35,621751.0,0.0,0.0
11:26:35,621880.0,0.0,0.0
11:26:35,621739.0,0.0,0.0
11:26:35,621715.0,0.0,0.0
11:26:35,621802.0,0.0,0.0
11:26:35,621700.0,0.0,0.0
11:26:35,621870.0,0.0,0.0
11:26:35,621769.0,0.0,0.0
11:26:35,621819.0,0.0,0.0
11:26:35,621903.0,0.0,0.0
11:26:35,621768.0,0.0,0.0
11:26:35,621912.0,0.0,0.0
11:26:35,621791.0,0.0,0.0
11:26:35,621846.0,0.0,0.0
11:26:35,621898.0,0.0,0.0
11:26:35,621731.0,0.0,0.0
11:26:35,621896.0,0.0,0.0
11:26:35,621803.0,0.0,0.0
11:26:35,621831.0,0.0,0.0
11:26:35,621889.0,0.0,0.0
11:26:35,621748.0,0.0,0.0
11:26:35,621943.0,0.0,0.0
11:26:35,621804.0,0.0,0.0
11:26:35,621847.0,0.0,0.0
11:26:35,621908.0,0.0,0.0
11:26:35,621780.0,0.0,0.0
11:26:35,621929.0,0.0,0.0
11:26:35,621823.0,0.0,0.0
11:26:35,621876.0,0.0,0.0
11:26:35,621920.0,0.0,0.0
11:26:35,621798.0,0.0,0.0
11:26:35,621977.0,0.0,0.0
11:26:35,621852.0,0.0,0.0
11:26:35,621895.0,0.0,0.0
11:26:35,621946.0,0.0,0.0
11:26:35,621834.0,0.0,0.0
11:26:35,622017.0,0.0,0.0
11:26:35,621889.0,0.0,0.0
11:26:35,621896.0,0.0,0.0
11:26:35,621980.0,0.0,0.0
11:26:35,621882.0,0.0,0.0
11:26:35,622051.0,0.0,0.0
11:26:35,621926.0,0.0,0.0
11:26:35,621986.0,0.0,0.0
11:26:35,622041.0,0.0,0.0
11:26:35,621928.0,0.0,0.0
11:26:35,622081.0,0.0,0.0
11:26:35,621951.0,0.0,0.0
11:26:35,622014.0,0.0,0.0
11:26:35,622079.0,0.0,0.0
11:26:35,621979.0,0.0,0.0
11:26:35,622142.0,0.0,0.0
11:26:35,622001.0,0.0,0.0
