TimeStramp,ECG,SpO2,Respiration
09:01:06,-207.386,0.0,0.0
09:01:06,177.689,0.0,0.0
09:01:06,-399.822,0.0,0.0
09:01:06,145.544,0.0,0.0
09:01:06,-163.947,0.0,0.0
09:01:06,-215.867,0.0,0.0
09:01:06,179.831,0.0,0.0
09:01:06,-402.116,0.0,0.0
09:01:06,137.044,0.0,0.0
09:01:06,-157.847,0.0,0.0
09:01:06,-224.69,0.0,0.0
09:01:06,183.039,0.0,0.0
09:01:06,-399.16,0.0,0.0
09:01:06,135.274,0.0,0.0
09:01:06,-146.579,0.0,0.0
09:01:06,-228.676,0.0,0.0
09:01:06,189.784,0.0,0.0
09:01:06,-395.922,0.0,0.0
09:01:06,130.604,0.0,0.0
09:01:06,-137.952,0.0,0.0
09:01:06,-235.541,0.0,0.0
09:01:06,192.997,0.0,0.0
09:01:06,-394.62,0.0,0.0
09:01:06,122.199,0.0,0.0
09:01:06,-137.261,0.0,0.0
09:01:06,-250.278,0.0,0.0
09:01:06,192.947,0.0,0.0
09:01:06,-386.866,0.0,0.0
09:01:06,130.688,0.0,0.0
09:01:06,-114.073,0.0,0.0
09:01:06,-244.693,0.0,0.0
09:01:06,200.698,0.0,0.0
09:01:06,-390.991,0.0,0.0
09:01:07,111.954,0.0,0.0
09:01:07,-114.544,0.0,0.0
09:01:07,-255.295,0.0,0.0
09:01:07,200.873,0.0,0.0
09:01:07,-391.064,0.0,0.0
09:01:07,105.227,0.0,0.0
09:01:07,-106.501,0.0,0.0
09:01:07,-261.162,0.0,0.0
09:01:07,203.299,0.0,0.0
09:01:07,-389.12,0.0,0.0
09:01:07,98.438,0.0,0.0
09:01:07,-99.967,0.0,0.0
09:01:07,-269.467,0.0,0.0
09:01:07,204.706,0.0,0.0
09:01:07,-387.896,0.0,0.0
09:01:07,91.084,0.0,0.0
09:01:07,-92.245,0.0,0.0
09:01:07,-276.077,0.0,0.0
09:01:07,205.546,0.0,0.0
09:01:07,-385.921,0.0,0.0
09:01:07,83.014,0.0,0.0
09:01:07,-85.62,0.0,0.0
09:01:07,-282.281,0.0,0.0
09:01:07,207.185,0.0,0.0
09:01:07,-381.7,0.0,0.0
09:01:07,77.561,0.0,0.0
09:01:07,-75.679,0.0,0.0
09:01:07,-285.652,0.0,0.0
09:01:07,211.124,0.0,0.0
09:01:07,-375.704,0.0,0.0
09:01:07,72.616,0.0,0.0
09:01:07,-66.226,0.0,0.0
09:01:07,-289.517,0.0,0.0
09:01:07,212.748,0.0,0.0
09:01:07,-372.141,0.0,0.0
09:01:07,65.32,0.0,0.0
09:01:07,-58.956,0.0,0.0
09:01:07,-295.65,0.0,0.0
09:01:07,213.114,0.0,0.0
09:01:07,-368.762,0.0,0.0
09:01:07,57.366,0.0,0.0
09:01:07,-51.206,0.0,0.0
09:01:07,-300.177,0.0,0.0
09:01:07,213.057,0.0,0.0
09:01:07,-363.183,0.0,0.0
09:01:07,49.108,0.0,0.0
09:01:07,-43.526,0.0,0.0
09:01:07,-302.356,0.0,0.0
09:01:07,209.869,0.0,0.0
09:01:07,-355.402,0.0,0.0
09:01:07,41.12,0.0,0.0
09:01:07,-36.183,0.0,0.0
09:01:07,-304.032,0.0,0.0
09:01:07,208.775,0.0,0.0
09:01:07,-340.924,0.0,0.0
09:01:07,28.861,0.0,0.0
09:01:07,-33.231,0.0,0.0
09:01:07,-299.247,0.0,0.0
09:01:07,195.063,0.0,0.0
09:01:07,-332.471,0.0,0.0
09:01:07,20.804,0.0,0.0
09:01:07,-27.468,0.0,0.0
09:01:07,-295.558,0.0,0.0
09:01:07,187.968,0.0,0.0
09:01:07,-321.791,0.0,0.0
09:01:07,13.932,0.0,0.0
09:01:07,-21.997,0.0,0.0
09:01:07,-293.859,0.0,0.0
09:01:07,183.003,0.0,0.0
09:01:07,-315.939,0.0,0.0
09:01:07,4.738,0.0,0.0
09:01:07,-18.834,0.0,0.0
09:01:07,-298.463,0.0,0.0
09:01:07,174.688,0.0,0.0
09:01:07,-308.282,0.0,0.0
09:01:07,-4.483,0.0,0.0
09:01:07,-16.131,0.0,0.0
09:01:07,-293.256,0.0,0.0
09:01:07,169.966,0.0,0.0
09:01:07,-296.896,0.0,0.0
09:01:07,-7.961,0.0,0.0
09:01:07,-9.254,0.0,0.0
09:01:07,-288.624,0.0,0.0
09:01:07,166.736,0.0,0.0
09:01:07,-287.545,0.0,0.0
09:01:07,-13.77,0.0,0.0
09:01:07,-5.522,0.0,0.0
09:01:07,-290.289,0.0,0.0
09:01:07,157.54,0.0,0.0
09:01:07,-293.004,0.0,0.0
09:01:07,-26.117,0.0,0.0
09:01:07,2.962,0.0,0.0
09:01:07,-278.164,0.0,0.0
09:01:07,176.381,0.0,0.0
09:01:07,-269.563,0.0,0.0
09:01:07,-21.127,0.0,0.0
09:01:07,10.244,0.0,0.0
09:01:07,-289.445,0.0,0.0
09:01:07,161.228,0.0,0.0
09:01:07,-271.004,0.0,0.0
09:01:07,-32.047,0.0,0.0
09:01:07,10.083,0.0,0.0
09:01:07,-294.959,0.0,0.0
09:01:07,156.802,0.0,0.0
09:01:07,-269.587,0.0,0.0
09:01:07,-39.356,0.0,0.0
09:01:07,15.228,0.0,0.0
09:01:07,-299.254,0.0,0.0
09:01:07,157.536,0.0,0.0
09:01:07,-265.291,0.0,0.0
09:01:07,-44.755,0.0,0.0
09:01:07,21.906,0.0,0.0
09:01:07,-303.315,0.0,0.0
09:01:07,157.343,0.0,0.0
09:01:07,-263.566,0.0,0.0
09:01:07,-51.306,0.0,0.0
09:01:07,27.217,0.0,0.0
09:01:07,-311.289,0.0,0.0
09:01:07,156.794,0.0,0.0
09:01:07,-262.066,0.0,0.0
09:01:07,-60.222,0.0,0.0
09:01:07,33.671,0.0,0.0
09:01:07,-313.439,0.0,0.0
09:01:07,157.182,0.0,0.0
09:01:07,-256.219,0.0,0.0
09:01:08,-64.064,0.0,0.0
09:01:08,41.827,0.0,0.0
09:01:08,-316.429,0.0,0.0
09:01:08,158.228,0.0,0.0
09:01:08,-251.276,0.0,0.0
09:01:08,-70.726,0.0,0.0
09:01:08,48.174,0.0,0.0
09:01:08,-318.426,0.0,0.0
09:01:08,158.842,0.0,0.0
09:01:08,-245.794,0.0,0.0
09:01:08,-76.169,0.0,0.0
09:01:08,56.167,0.0,0.0
09:01:08,-322.099,0.0,0.0
09:01:08,159.319,0.0,0.0
09:01:08,-241.077,0.0,0.0
09:01:08,-82.783,0.0,0.0
09:01:08,61.972,0.0,0.0
09:01:08,-325.388,0.0,0.0
09:01:08,156.629,0.0,0.0
09:01:08,-237.432,0.0,0.0
09:01:08,-90.742,0.0,0.0
09:01:08,66.314,0.0,0.0
09:01:08,-329.02,0.0,0.0
09:01:08,153.713,0.0,0.0
09:01:08,-233.078,0.0,0.0
09:01:08,-98.289,0.0,0.0
09:01:08,70.617,0.0,0.0
09:01:08,-331.425,0.0,0.0
09:01:08,150.589,0.0,0.0
09:01:08,-228.14,0.0,0.0
09:01:08,-104.94,0.0,0.0
09:01:08,75.509,0.0,0.0
09:01:08,-333.402,0.0,0.0
09:01:08,148.556,0.0,0.0
09:01:08,-222.024,0.0,0.0
09:01:08,-110.566,0.0,0.0
09:01:08,81.784,0.0,0.0
09:01:08,-334.019,0.0,0.0
09:01:08,145.992,0.0,0.0
09:01:08,-217.761,0.0,0.0
09:01:08,-118.616,0.0,0.0
09:01:08,85.508,0.0,0.0
09:01:08,-338.823,0.0,0.0
09:01:08,140.476,0.0,0.0
09:01:08,-213.297,0.0,0.0
09:01:08,-125.986,0.0,0.0
09:01:08,90.069,0.0,0.0
09:01:08,-337.197,0.0,0.0
09:01:08,140.791,0.0,0.0
09:01:08,-204.457,0.0,0.0
09:01:08,-129.249,0.0,0.0
09:01:08,97.308,0.0,0.0
09:01:08,-336.301,0.0,0.0
09:01:08,139.876,0.0,0.0
09:01:08,-197.365,0.0,0.0
09:01:08,-134.559,0.0,0.0
09:01:08,103.093,0.0,0.0
09:01:08,-339.249,0.0,0.0
09:01:08,129.516,0.0,0.0
09:01:08,-201.956,0.0,0.0
09:01:08,-147.192,0.0,0.0
09:01:08,111.525,0.0,0.0
09:01:08,-323.468,0.0,0.0
09:01:08,146.089,0.0,0.0
09:01:08,-180.423,0.0,0.0
09:01:08,-146.171,0.0,0.0
09:01:08,111.371,0.0,0.0
09:01:08,-337.767,0.0,0.0
09:01:08,127.801,0.0,0.0
09:01:08,-179.649,0.0,0.0
09:01:08,-153.914,0.0,0.0
09:01:08,113.049,0.0,0.0
09:01:08,-337.554,0.0,0.0
09:01:08,123.039,0.0,0.0
09:01:08,-173.862,0.0,0.0
09:01:08,-160.478,0.0,0.0
09:01:08,115.29,0.0,0.0
09:01:08,-338.107,0.0,0.0
09:01:08,117.823,0.0,0.0
09:01:08,-168.925,0.0,0.0
09:01:08,-167.376,0.0,0.0
09:01:08,117.742,0.0,0.0
09:01:08,-339.403,0.0,0.0
09:01:08,112.332,0.0,0.0
09:01:08,-164.021,0.0,0.0
09:01:08,-174.868,0.0,0.0
09:01:08,119.66,0.0,0.0
09:01:08,-340.41,0.0,0.0
09:01:08,107.322,0.0,0.0
09:01:08,-158.677,0.0,0.0
09:01:08,-181.03,0.0,0.0
09:01:08,122.878,0.0,0.0
09:01:08,-339.334,0.0,0.0
09:01:08,103.628,0.0,0.0
09:01:08,-151.273,0.0,0.0
09:01:08,-184.904,0.0,0.0
09:01:08,128.103,0.0,0.0
09:01:08,-336.592,0.0,0.0
09:01:08,101.652,0.0,0.0
09:01:08,-143.052,0.0,0.0
09:01:08,-188.94,0.0,0.0
09:01:08,132.773,0.0,0.0
09:01:08,-334.944,0.0,0.0
09:01:08,98.042,0.0,0.0
09:01:08,-136.286,0.0,0.0
09:01:08,-194.114,0.0,0.0
09:01:08,136.569,0.0,0.0
09:01:08,-334.049,0.0,0.0
09:01:08,93.562,0.0,0.0
09:01:08,-130.106,0.0,0.0
09:01:08,-200.266,0.0,0.0
09:01:08,138.486,0.0,0.0
09:01:08,-333.648,0.0,0.0
09:01:08,88.644,0.0,0.0
09:01:08,-124.159,0.0,0.0
09:01:08,-205.414,0.0,0.0
09:01:08,142.133,0.0,0.0
09:01:08,-333.062,0.0,0.0
09:01:08,85.579,0.0,0.0
09:01:08,-117.481,0.0,0.0
09:01:08,-210.949,0.0,0.0
09:01:08,145.901,0.0,0.0
09:01:08,-331.59,0.0,0.0
09:01:08,79.84,0.0,0.0
09:01:08,-110.641,0.0,0.0
09:01:09,-215.16,0.0,0.0
09:01:09,146.47,0.0,0.0
09:01:09,-328.09,0.0,0.0
09:01:09,75.058,0.0,0.0
09:01:09,-103.957,0.0,0.0
09:01:09,-219.481,0.0,0.0
09:01:09,148.622,0.0,0.0
09:01:09,-325.549,0.0,0.0
09:01:09,68.834,0.0,0.0
09:01:09,-98.976,0.0,0.0
09:01:09,-225.786,0.0,0.0
09:01:09,146.57,0.0,0.0
09:01:09,-325.606,0.0,0.0
09:01:09,59.564,0.0,0.0
09:01:09,-94.832,0.0,0.0
09:01:09,-230.422,0.0,0.0
09:01:09,147.635,0.0,0.0
09:01:09,-320.815,0.0,0.0
09:01:09,57.728,0.0,0.0
09:01:09,-85.556,0.0,0.0
09:01:09,-231.696,0.0,0.0
09:01:09,151.663,0.0,0.0
09:01:09,-316.768,0.0,0.0
09:01:09,53.878,0.0,0.0
09:01:09,-78.541,0.0,0.0
09:01:09,-235.766,0.0,0.0
09:01:09,154.231,0.0,0.0
09:01:09,-315.062,0.0,0.0
09:01:09,44.171,0.0,0.0
09:01:09,-81.564,0.0,0.0
09:01:09,-248.412,0.0,0.0
09:01:09,155.841,0.0,0.0
09:01:09,-302.347,0.0,0.0
09:01:09,56.614,0.0,0.0
09:01:09,-58.327,0.0,0.0
09:01:09,-241.767,0.0,0.0
09:01:09,158.523,0.0,0.0
09:01:09,-309.739,0.0,0.0
09:01:09,39.15,0.0,0.0
09:01:09,-59.461,0.0,0.0
09:01:09,-249.769,0.0,0.0
09:01:09,159.361,0.0,0.0
09:01:09,-309.299,0.0,0.0
09:01:09,33.51,0.0,0.0
09:01:09,-53.366,0.0,0.0
09:01:09,-255.336,0.0,0.0
09:01:09,160.711,0.0,0.0
09:01:09,-307.619,0.0,0.0
09:01:09,27.101,0.0,0.0
09:01:09,-48.656,0.0,0.0
09:01:09,-261.385,0.0,0.0
09:01:09,160.633,0.0,0.0
09:01:09,-306.402,0.0,0.0
09:01:09,20.491,0.0,0.0
09:01:09,-43.422,0.0,0.0
09:01:09,-266.563,0.0,0.0
09:01:09,160.165,0.0,0.0
09:01:09,-304.334,0.0,0.0
09:01:09,14.247,0.0,0.0
09:01:09,-37.676,0.0,0.0
09:01:09,-270.403,0.0,0.0
09:01:09,161.203,0.0,0.0
09:01:09,-300.663,0.0,0.0
09:01:09,9.996,0.0,0.0
09:01:09,-29.68,0.0,0.0
09:01:09,-272.391,0.0,0.0
09:01:09,163.983,0.0,0.0
09:01:09,-295.814,0.0,0.0
09:01:09,5.813,0.0,0.0
09:01:09,-22.308,0.0,0.0
09:01:09,-274.936,0.0,0.0
09:01:09,165.118,0.0,0.0
09:01:09,-291.472,0.0,0.0
09:01:09,0.466,0.0,0.0
09:01:09,-16.054,0.0,0.0
09:01:09,-278.594,0.0,0.0
09:01:09,164.808,0.0,0.0
09:01:09,-287.845,0.0,0.0
09:01:09,-5.296,0.0,0.0
09:01:09,-10.285,0.0,0.0
09:01:09,-282.227,0.0,0.0
09:01:09,164.813,0.0,0.0
09:01:09,-284.669,0.0,0.0
09:01:09,-11.299,0.0,0.0
09:01:09,-4.431,0.0,0.0
09:01:09,-285.597,0.0,0.0
09:01:09,164.422,0.0,0.0
09:01:09,-280.785,0.0,0.0
09:01:09,-17.639,0.0,0.0
09:01:09,1.105,0.0,0.0
09:01:09,-288.653,0.0,0.0
09:01:09,164.086,0.0,0.0
09:01:09,-276.749,0.0,0.0
09:01:09,-22.99,0.0,0.0
09:01:09,7.163,0.0,0.0
09:01:09,-291.766,0.0,0.0
09:01:09,163.669,0.0,0.0
09:01:09,-272.599,0.0,0.0
09:01:09,-28.868,0.0,0.0
09:01:09,12.871,0.0,0.0
09:01:09,-295.179,0.0,0.0
09:01:09,161.248,0.0,0.0
09:01:09,-269.727,0.0,0.0
09:01:09,-37.144,0.0,0.0
09:01:09,15.18,0.0,0.0
09:01:09,-299.841,0.0,0.0
09:01:09,159.651,0.0,0.0
09:01:09,-265.991,0.0,0.0
09:01:09,-41.941,0.0,0.0
09:01:09,23.848,0.0,0.0
09:01:09,-299.561,0.0,0.0
09:01:09,161.49,0.0,0.0
09:01:09,-258.754,0.0,0.0
09:01:09,-45.701,0.0,0.0
09:01:09,30.619,0.0,0.0
09:01:09,-301.072,0.0,0.0
09:01:09,161.264,0.0,0.0
09:01:09,-254.187,0.0,0.0
09:01:09,-51.884,0.0,0.0
09:01:09,33.479,0.0,0.0
09:01:09,-311.053,0.0,0.0
09:01:09,150.808,0.0,0.0
09:01:09,-253.414,0.0,0.0
09:01:09,-52.397,0.0,0.0
09:01:10,53.273,0.0,0.0
09:01:10,-296.462,0.0,0.0
09:01:10,163.003,0.0,0.0
09:01:10,-243.556,0.0,0.0
09:01:10,-63.435,0.0,0.0
09:01:10,46.48,0.0,0.0
09:01:10,-308.519,0.0,0.0
09:01:10,156.421,0.0,0.0
09:01:10,-241.327,0.0,0.0
09:01:10,-70.798,0.0,0.0
09:01:10,51.06,0.0,0.0
09:01:10,-311.119,0.0,0.0
09:01:10,154.178,0.0,0.0
09:01:10,-237.417,0.0,0.0
09:01:10,-77.511,0.0,0.0
09:01:10,54.817,0.0,0.0
09:01:10,-314.146,0.0,0.0
09:01:10,150.698,0.0,0.0
09:01:10,-234.077,0.0,0.0
09:01:10,-84.705,0.0,0.0
09:01:10,58.243,0.0,0.0
09:01:10,-316.95,0.0,0.0
09:01:10,147.762,0.0,0.0
09:01:10,-230.179,0.0,0.0
09:01:10,-91.644,0.0,0.0
09:01:10,62.17,0.0,0.0
09:01:10,-318.933,0.0,0.0
09:01:10,145.148,0.0,0.0
09:01:10,-225.007,0.0,0.0
09:01:10,-97.069,0.0,0.0
09:01:10,67.602,0.0,0.0
09:01:10,-319.187,0.0,0.0
09:01:10,144.323,0.0,0.0
09:01:10,-218.049,0.0,0.0
09:01:10,-101.087,0.0,0.0
09:01:10,74.418,0.0,0.0
09:01:10,-318.963,0.0,0.0
09:01:10,143.341,0.0,0.0
09:01:10,-211.482,0.0,0.0
09:01:10,-106.362,0.0,0.0
09:01:10,79.197,0.0,0.0
09:01:10,-319.742,0.0,0.0
09:01:10,140.698,0.0,0.0
09:01:10,-206.285,0.0,0.0
09:01:10,-112.314,0.0,0.0
09:01:10,84.051,0.0,0.0
09:01:10,-320.889,0.0,0.0
09:01:10,138.42,0.0,0.0
09:01:10,-201.018,0.0,0.0
09:01:10,-118.462,0.0,0.0
09:01:10,88.164,0.0,0.0
09:01:10,-321.162,0.0,0.0
09:01:10,135.596,0.0,0.0
09:01:10,-195.801,0.0,0.0
09:01:10,-124.078,0.0,0.0
09:01:10,92.873,0.0,0.0
09:01:10,-322.266,0.0,0.0
09:01:10,133.304,0.0,0.0
09:01:10,-189.749,0.0,0.0
09:01:10,-129.586,0.0,0.0
09:01:10,97.999,0.0,0.0
09:01:10,-323.452,0.0,0.0
09:01:10,130.686,0.0,0.0
09:01:10,-183.636,0.0,0.0
09:01:10,-135.666,0.0,0.0
09:01:10,101.058,0.0,0.0
09:01:10,-324.659,0.0,0.0
09:01:10,126.048,0.0,0.0
09:01:10,-180.257,0.0,0.0
09:01:10,-143.942,0.0,0.0
09:01:10,103.158,0.0,0.0
09:01:10,-325.521,0.0,0.0
09:01:10,122.306,0.0,0.0
09:01:10,-172.457,0.0,0.0
09:01:10,-146.44,0.0,0.0
09:01:10,109.849,0.0,0.0
09:01:10,-323.172,0.0,0.0
09:01:10,121.197,0.0,0.0
09:01:10,-164.712,0.0,0.0
09:01:10,-150.803,0.0,0.0
09:01:10,114.319,0.0,0.0
09:01:10,-321.852,0.0,0.0
09:01:10,118.061,0.0,0.0
09:01:10,-159.27,0.0,0.0
09:01:10,-160.106,0.0,0.0
09:01:10,109.441,0.0,0.0
09:01:10,-330.271,0.0,0.0
09:01:10,111.107,0.0,0.0
09:01:10,-146.934,0.0,0.0
09:01:10,-151.036,0.0,0.0
09:01:10,128.769,0.0,0.0
09:01:10,-318.581,0.0,0.0
09:01:10,110.84,0.0,0.0
09:01:10,-147.217,0.0,0.0
09:01:10,-168.006,0.0,0.0
09:01:10,124.467,0.0,0.0
09:01:10,-322.76,0.0,0.0
09:01:10,105.568,0.0,0.0
09:01:10,-142.057,0.0,0.0
09:01:10,-174.416,0.0,0.0
09:01:10,126.952,0.0,0.0
09:01:10,-322.592,0.0,0.0
09:01:10,100.804,0.0,0.0
09:01:10,-137.057,0.0,0.0
09:01:10,-180.924,0.0,0.0
09:01:10,129.076,0.0,0.0
09:01:10,-323.214,0.0,0.0
09:01:10,95.634,0.0,0.0
09:01:10,-132.388,0.0,0.0
09:01:10,-187.708,0.0,0.0
09:01:10,131.031,0.0,0.0
09:01:10,-324.281,0.0,0.0
09:01:10,90.701,0.0,0.0
09:01:10,-127.361,0.0,0.0
09:01:10,-193.949,0.0,0.0
09:01:10,134.152,0.0,0.0
09:01:10,-323.892,0.0,0.0
09:01:10,87.03,0.0,0.0
09:01:10,-120.759,0.0,0.0
09:01:10,-198.328,0.0,0.0
09:01:10,139.359,0.0,0.0
09:01:10,-321.059,0.0,0.0
09:01:10,85.093,0.0,0.0
09:01:10,-111.869,0.0,0.0
09:01:10,-201.108,0.0,0.0
09:01:11,143.898,0.0,0.0
09:01:11,-318.582,0.0,0.0
09:01:11,81.976,0.0,0.0
09:01:11,-104.802,0.0,0.0
09:01:11,-205.644,0.0,0.0
09:01:11,146.7,0.0,0.0
09:01:11,-317.22,0.0,0.0
09:01:11,77.588,0.0,0.0
09:01:11,-98.788,0.0,0.0
09:01:11,-211.017,0.0,0.0
09:01:11,148.939,0.0,0.0
09:01:11,-316.101,0.0,0.0
09:01:11,73.075,0.0,0.0
09:01:11,-92.429,0.0,0.0
09:01:11,-216.268,0.0,0.0
09:01:11,150.702,0.0,0.0
09:01:11,-314.428,0.0,0.0
09:01:11,67.522,0.0,0.0
09:01:11,-86.689,0.0,0.0
09:01:11,-220.751,0.0,0.0
09:01:11,152.859,0.0,0.0
09:01:11,-312.352,0.0,0.0
09:01:11,62.488,0.0,0.0
09:01:11,-80.386,0.0,0.0
09:01:11,-225.494,0.0,0.0
09:01:11,154.751,0.0,0.0
09:01:11,-310.256,0.0,0.0
09:01:11,57.562,0.0,0.0
09:01:11,-73.746,0.0,0.0
09:01:11,-229.669,0.0,0.0
09:01:11,156.544,0.0,0.0
09:01:11,-308.173,0.0,0.0
09:01:11,51.274,0.0,0.0
09:01:11,-69.944,0.0,0.0
09:01:11,-236.866,0.0,0.0
09:01:11,155.294,0.0,0.0
09:01:11,-308.987,0.0,0.0
09:01:11,44.199,0.0,0.0
09:01:11,-63.909,0.0,0.0
09:01:11,-240.596,0.0,0.0
09:01:11,158.106,0.0,0.0
09:01:11,-303.443,0.0,0.0
09:01:11,42.364,0.0,0.0
09:01:11,-54.472,0.0,0.0
09:01:11,-242.117,0.0,0.0
09:01:11,161.694,0.0,0.0
09:01:11,-299.294,0.0,0.0
09:01:11,38.036,0.0,0.0
09:01:11,-47.704,0.0,0.0
09:01:11,-245.827,0.0,0.0
09:01:11,162.811,0.0,0.0
09:01:11,-300.439,0.0,0.0
09:01:11,23.631,0.0,0.0
09:01:11,-50.428,0.0,0.0
09:01:11,-252.581,0.0,0.0
09:01:11,172.423,0.0,0.0
09:01:11,-280.347,0.0,0.0
09:01:11,35.111,0.0,0.0
09:01:11,-32.832,0.0,0.0
09:01:11,-253.984,0.0,0.0
09:01:11,164.148,0.0,0.0
09:01:11,-292.191,0.0,0.0
09:01:11,20.395,0.0,0.0
09:01:11,-30.716,0.0,0.0
09:01:11,-259.976,0.0,0.0
09:01:11,163.956,0.0,0.0
09:01:11,-290.041,0.0,0.0
09:01:11,14.006,0.0,0.0
09:01:11,-25.372,0.0,0.0
09:01:11,-264.667,0.0,0.0
09:01:11,163.556,0.0,0.0
09:01:11,-288.081,0.0,0.0
09:01:11,7.068,0.0,0.0
09:01:11,-20.51,0.0,0.0
09:01:11,-269.784,0.0,0.0
09:01:11,162.424,0.0,0.0
09:01:11,-285.995,0.0,0.0
09:01:11,-0.095,0.0,0.0
09:01:11,-16.079,0.0,0.0
09:01:11,-275.051,0.0,0.0
09:01:11,161.373,0.0,0.0
09:01:11,-284.079,0.0,0.0
09:01:11,-6.722,0.0,0.0
09:01:11,-10.609,0.0,0.0
09:01:11,-278.569,0.0,0.0
09:01:11,161.984,0.0,0.0
09:01:11,-279.316,0.0,0.0
09:01:11,-10.866,0.0,0.0
09:01:11,-2.452,0.0,0.0
09:01:11,-279.561,0.0,0.0
09:01:11,164.5,0.0,0.0
09:01:11,-273.476,0.0,0.0
09:01:11,-14.859,0.0,0.0
09:01:11,4.998,0.0,0.0
09:01:11,-281.755,0.0,0.0
09:01:11,164.774,0.0,0.0
09:01:11,-269.04,0.0,0.0
09:01:11,-20.411,0.0,0.0
09:01:11,11.028,0.0,0.0
09:01:11,-284.679,0.0,0.0
09:01:11,164.266,0.0,0.0
09:01:11,-265.401,0.0,0.0
09:01:11,-26.627,0.0,0.0
09:01:11,16.367,0.0,0.0
09:01:11,-288.05,0.0,0.0
09:01:11,163.734,0.0,0.0
09:01:11,-261.383,0.0,0.0
09:01:11,-32.548,0.0,0.0
09:01:11,21.866,0.0,0.0
09:01:11,-291.11,0.0,0.0
09:01:11,162.676,0.0,0.0
09:01:11,-257.397,0.0,0.0
09:01:11,-38.303,0.0,0.0
09:01:11,27.597,0.0,0.0
09:01:11,-293.609,0.0,0.0
09:01:11,162.352,0.0,0.0
09:01:11,-253.006,0.0,0.0
09:01:11,-43.644,0.0,0.0
09:01:11,33.801,0.0,0.0
09:01:11,-296.141,0.0,0.0
09:01:11,161.508,0.0,0.0
09:01:11,-248.506,0.0,0.0
09:01:11,-50.026,0.0,0.0
09:01:11,39.048,0.0,0.0
09:01:11,-298.364,0.0,0.0
09:01:12,160.509,0.0,0.0
09:01:12,-243.739,0.0,0.0
09:01:12,-55.822,0.0,0.0
09:01:12,44.726,0.0,0.0
09:01:12,-301.148,0.0,0.0
09:01:12,157.758,0.0,0.0
09:01:12,-241.141,0.0,0.0
09:01:12,-63.804,0.0,0.0
09:01:12,47.003,0.0,0.0
09:01:12,-306.454,0.0,0.0
09:01:12,154.976,0.0,0.0
09:01:12,-237.451,0.0,0.0
09:01:12,-69.896,0.0,0.0
09:01:12,54.121,0.0,0.0
09:01:12,-305.106,0.0,0.0
09:01:12,156.736,0.0,0.0
09:01:12,-229.552,0.0,0.0
09:01:12,-72.742,0.0,0.0
09:01:12,61.515,0.0,0.0
09:01:12,-305.799,0.0,0.0
09:01:12,155.968,0.0,0.0
09:01:12,-223.932,0.0,0.0
09:01:12,-78.223,0.0,0.0
09:01:12,66.588,0.0,0.0
09:01:12,-311.327,0.0,0.0
09:01:12,145.152,0.0,0.0
09:01:12,-228.295,0.0,0.0
09:01:12,-87.031,0.0,0.0
09:01:12,79.975,0.0,0.0
09:01:12,-294.652,0.0,0.0
09:01:12,161.451,0.0,0.0
09:01:12,-210.315,0.0,0.0
09:01:12,-89.207,0.0,0.0
09:01:12,76.496,0.0,0.0
09:01:12,-311.063,0.0,0.0
09:01:12,149.361,0.0,0.0
09:01:12,-209.599,0.0,0.0
09:01:12,-96.64,0.0,0.0
09:01:12,80.485,0.0,0.0
09:01:12,-312.896,0.0,0.0
09:01:12,146.493,0.0,0.0
09:01:12,-204.942,0.0,0.0
09:01:12,-103.386,0.0,0.0
09:01:12,84.026,0.0,0.0
09:01:12,-315.226,0.0,0.0
09:01:12,142.929,0.0,0.0
09:01:12,-200.802,0.0,0.0
09:01:12,-110.077,0.0,0.0
09:01:12,88.234,0.0,0.0
09:01:12,-317.218,0.0,0.0
09:01:12,139.308,0.0,0.0
09:01:12,-196.569,0.0,0.0
09:01:12,-117.351,0.0,0.0
09:01:12,90.894,0.0,0.0
09:01:12,-319.047,0.0,0.0
09:01:12,135.811,0.0,0.0
09:01:12,-191.327,0.0,0.0
09:01:12,-123.024,0.0,0.0
09:01:12,95.786,0.0,0.0
09:01:12,-318.704,0.0,0.0
09:01:12,134.727,0.0,0.0
09:01:12,-183.582,0.0,0.0
09:01:12,-126.362,0.0,0.0
09:01:12,102.609,0.0,0.0
09:01:12,-316.9,0.0,0.0
09:01:12,133.788,0.0,0.0
09:01:12,-176.384,0.0,0.0
09:01:12,-130.894,0.0,0.0
09:01:12,107.418,0.0,0.0
09:01:12,-316.807,0.0,0.0
09:01:12,130.812,0.0,0.0
09:01:12,-170.612,0.0,0.0
09:01:12,-136.427,0.0,0.0
09:01:12,111.579,0.0,0.0
09:01:12,-317.194,0.0,0.0
09:01:12,127.592,0.0,0.0
09:01:12,-165.06,0.0,0.0
09:01:12,-142.264,0.0,0.0
09:01:12,115.136,0.0,0.0
09:01:12,-317.524,0.0,0.0
09:01:12,124.107,0.0,0.0
09:01:12,-159.41,0.0,0.0
09:01:12,-147.959,0.0,0.0
09:01:12,118.819,0.0,0.0
09:01:12,-317.787,0.0,0.0
09:01:12,120.667,0.0,0.0
09:01:12,-153.658,0.0,0.0
09:01:12,-153.431,0.0,0.0
09:01:12,122.563,0.0,0.0
09:01:12,-317.317,0.0,0.0
09:01:12,116.854,0.0,0.0
09:01:12,-148.026,0.0,0.0
09:01:12,-158.55,0.0,0.0
09:01:12,126.354,0.0,0.0
09:01:12,-316.722,0.0,0.0
09:01:12,114.006,0.0,0.0
09:01:12,-141.172,0.0,0.0
09:01:12,-163.511,0.0,0.0
09:01:12,129.798,0.0,0.0
09:01:12,-316.072,0.0,0.0
09:01:12,110.269,0.0,0.0
09:01:12,-135.147,0.0,0.0
09:01:12,-168.829,0.0,0.0
09:01:12,133.288,0.0,0.0
09:01:12,-315.292,0.0,0.0
09:01:12,106.493,0.0,0.0
09:01:12,-128.981,0.0,0.0
09:01:12,-174.041,0.0,0.0
09:01:12,136.499,0.0,0.0
09:01:12,-315.266,0.0,0.0
09:01:12,101.198,0.0,0.0
09:01:12,-125.074,0.0,0.0
09:01:12,-181.419,0.0,0.0
09:01:12,136.591,0.0,0.0
09:01:12,-317.748,0.0,0.0
09:01:12,95.193,0.0,0.0
09:01:12,-119.909,0.0,0.0
09:01:12,-186.967,0.0,0.0
09:01:12,140.709,0.0,0.0
09:01:12,-313.668,0.0,0.0
09:01:12,94.003,0.0,0.0
09:01:12,-110.627,0.0,0.0
09:01:12,-189.0,0.0,0.0
09:01:12,145.613,0.0,0.0
09:01:12,-311.125,0.0,0.0
09:01:13,90.466,0.0,0.0
09:01:13,-104.099,0.0,0.0
09:01:13,-193.591,0.0,0.0
09:01:13,148.871,0.0,0.0
09:01:13,-313.816,0.0,0.0
09:01:13,76.73,0.0,0.0
09:01:13,-107.644,0.0,0.0
09:01:13,-202.165,0.0,0.0
09:01:13,158.033,0.0,0.0
09:01:13,-295.307,0.0,0.0
09:01:13,90.096,0.0,0.0
09:01:13,-88.878,0.0,0.0
09:01:13,-203.568,0.0,0.0
09:01:13,152.447,0.0,0.0
09:01:13,-308.151,0.0,0.0
09:01:13,75.482,0.0,0.0
09:01:13,-87.371,0.0,0.0
09:01:13,-210.5,0.0,0.0
09:01:13,153.178,0.0,0.0
09:01:13,-307.766,0.0,0.0
09:01:13,69.698,0.0,0.0
09:01:13,-82.712,0.0,0.0
09:01:13,-216.299,0.0,0.0
09:01:13,154.25,0.0,0.0
09:01:13,-307.172,0.0,0.0
09:01:13,64.324,0.0,0.0
09:01:13,-77.606,0.0,0.0
09:01:13,-222.594,0.0,0.0
09:01:13,154.637,0.0,0.0
09:01:13,-306.772,0.0,0.0
09:01:13,57.709,0.0,0.0
09:01:13,-72.444,0.0,0.0
09:01:13,-227.97,0.0,0.0
09:01:13,155.925,0.0,0.0
09:01:13,-305.329,0.0,0.0
09:01:13,52.273,0.0,0.0
09:01:13,-66.402,0.0,0.0
09:01:13,-231.929,0.0,0.0
09:01:13,158.378,0.0,0.0
09:01:13,-301.385,0.0,0.0
09:01:13,49.054,0.0,0.0
09:01:13,-58.222,0.0,0.0
09:01:13,-233.587,0.0,0.0
09:01:13,161.82,0.0,0.0
09:01:13,-296.714,0.0,0.0
09:01:13,45.304,0.0,0.0
09:01:13,-50.754,0.0,0.0
09:01:13,-237.145,0.0,0.0
09:01:13,163.119,0.0,0.0
09:01:13,-293.507,0.0,0.0
09:01:13,40.833,0.0,0.0
09:01:13,-43.737,0.0,0.0
09:01:13,-240.006,0.0,0.0
09:01:13,165.766,0.0,0.0
09:01:13,-289.545,0.0,0.0
09:01:13,36.994,0.0,0.0
09:01:13,-36.528,0.0,0.0
09:01:13,-243.111,0.0,0.0
09:01:13,167.379,0.0,0.0
09:01:13,-286.532,0.0,0.0
09:01:13,32.616,0.0,0.0
09:01:13,-30.069,0.0,0.0
09:01:13,-247.504,0.0,0.0
09:01:13,167.527,0.0,0.0
09:01:13,-284.452,0.0,0.0
09:01:13,25.777,0.0,0.0
09:01:13,-25.401,0.0,0.0
09:01:13,-251.687,0.0,0.0
09:01:13,168.354,0.0,0.0
09:01:13,-281.951,0.0,0.0
09:01:13,20.223,0.0,0.0
09:01:13,-19.449,0.0,0.0
09:01:13,-255.745,0.0,0.0
09:01:13,168.605,0.0,0.0
09:01:13,-278.82,0.0,0.0
09:01:13,14.524,0.0,0.0
09:01:13,-13.651,0.0,0.0
09:01:13,-259.392,0.0,0.0
09:01:13,168.904,0.0,0.0
09:01:13,-276.05,0.0,0.0
09:01:13,8.939,0.0,0.0
09:01:13,-7.796,0.0,0.0
09:01:13,-263.247,0.0,0.0
09:01:13,169.86,0.0,0.0
09:01:13,-272.591,0.0,0.0
09:01:13,3.302,0.0,0.0
09:01:13,-1.784,0.0,0.0
09:01:13,-266.282,0.0,0.0
09:01:13,169.433,0.0,0.0
09:01:13,-269.02,0.0,0.0
09:01:13,-2.539,0.0,0.0
09:01:13,3.145,0.0,0.0
09:01:13,-271.177,0.0,0.0
09:01:13,167.809,0.0,0.0
09:01:13,-267.658,0.0,0.0
09:01:13,-11.046,0.0,0.0
09:01:13,6.999,0.0,0.0
09:01:13,-275.442,0.0,0.0
09:01:13,166.786,0.0,0.0
09:01:13,-262.998,0.0,0.0
09:01:13,-14.107,0.0,0.0
09:01:13,15.49,0.0,0.0
09:01:13,-275.473,0.0,0.0
09:01:13,169.509,0.0,0.0
09:01:13,-256.545,0.0,0.0
09:01:13,-18.154,0.0,0.0
09:01:13,22.895,0.0,0.0
09:01:13,-277.717,0.0,0.0
09:01:13,169.529,0.0,0.0
09:01:13,-252.71,0.0,0.0
09:01:13,-26.542,0.0,0.0
09:01:13,20.723,0.0,0.0
09:01:13,-289.596,0.0,0.0
09:01:13,164.311,0.0,0.0
09:01:13,-244.547,0.0,0.0
09:01:13,-18.589,0.0,0.0
09:01:13,42.554,0.0,0.0
09:01:13,-279.166,0.0,0.0
09:01:13,169.026,0.0,0.0
09:01:13,-244.648,0.0,0.0
09:01:13,-36.342,0.0,0.0
09:01:13,37.974,0.0,0.0
09:01:13,-287.411,0.0,0.0
09:01:13,165.493,0.0,0.0
09:01:13,-241.727,0.0,0.0
09:01:13,-43.426,0.0,0.0
09:01:14,42.341,0.0,0.0
09:01:14,-290.632,0.0,0.0
09:01:14,163.432,0.0,0.0
09:01:14,-238.412,0.0,0.0
09:01:14,-50.693,0.0,0.0
09:01:14,46.335,0.0,0.0
09:01:14,-294.161,0.0,0.0
09:01:14,160.683,0.0,0.0
09:01:14,-235.699,0.0,0.0
09:01:14,-58.077,0.0,0.0
09:01:14,50.237,0.0,0.0
09:01:14,-297.959,0.0,0.0
09:01:14,157.875,0.0,0.0
09:01:14,-232.463,0.0,0.0
09:01:14,-65.256,0.0,0.0
09:01:14,54.348,0.0,0.0
09:01:14,-300.706,0.0,0.0
09:01:14,157.155,0.0,0.0
09:01:14,-226.732,0.0,0.0
09:01:14,-69.489,0.0,0.0
09:01:14,61.317,0.0,0.0
09:01:14,-300.168,0.0,0.0
09:01:14,157.33,0.0,0.0
09:01:14,-219.716,0.0,0.0
09:01:14,-72.751,0.0,0.0
09:01:14,68.592,0.0,0.0
09:01:14,-300.179,0.0,0.0
09:01:14,156.917,0.0,0.0
09:01:14,-213.839,0.0,0.0
09:01:14,-77.982,0.0,0.0
09:01:14,74.209,0.0,0.0
09:01:14,-301.619,0.0,0.0
09:01:14,155.501,0.0,0.0
09:01:14,-208.472,0.0,0.0
09:01:14,-83.258,0.0,0.0
09:01:14,79.438,0.0,0.0
09:01:14,-303.24,0.0,0.0
09:01:14,153.002,0.0,0.0
09:01:14,-204.088,0.0,0.0
09:01:14,-89.816,0.0,0.0
09:01:14,83.621,0.0,0.0
09:01:14,-304.687,0.0,0.0
09:01:14,150.728,0.0,0.0
09:01:14,-198.845,0.0,0.0
09:01:14,-95.834,0.0,0.0
09:01:14,88.026,0.0,0.0
09:01:14,-305.999,0.0,0.0
09:01:14,148.539,0.0,0.0
09:01:14,-194.098,0.0,0.0
09:01:14,-101.968,0.0,0.0
09:01:14,92.529,0.0,0.0
09:01:14,-307.065,0.0,0.0
09:01:14,146.218,0.0,0.0
09:01:14,-188.481,0.0,0.0
09:01:14,-107.297,0.0,0.0
09:01:14,97.298,0.0,0.0
09:01:14,-308.199,0.0,0.0
09:01:14,143.664,0.0,0.0
09:01:14,-183.145,0.0,0.0
09:01:14,-113.067,0.0,0.0
09:01:14,101.509,0.0,0.0
09:01:14,-309.932,0.0,0.0
09:01:14,139.659,0.0,0.0
09:01:14,-179.694,0.0,0.0
09:01:14,-121.027,0.0,0.0
09:01:14,103.109,0.0,0.0
09:01:14,-313.567,0.0,0.0
09:01:14,135.559,0.0,0.0
09:01:14,-174.947,0.0,0.0
09:01:14,-126.481,0.0,0.0
09:01:14,109.738,0.0,0.0
09:01:14,-312.517,0.0,0.0
09:01:14,136.609,0.0,0.0
09:01:14,-165.927,0.0,0.0
09:01:14,-129.521,0.0,0.0
09:01:14,116.891,0.0,0.0
09:01:14,-311.038,0.0,0.0
09:01:14,134.719,0.0,0.0
09:01:14,-159.853,0.0,0.0
09:01:14,-134.711,0.0,0.0
09:01:14,120.774,0.0,0.0
09:01:14,-315.509,0.0,0.0
09:01:14,123.431,0.0,0.0
09:01:14,-162.7,0.0,0.0
09:01:14,-143.501,0.0,0.0
09:01:14,131.903,0.0,0.0
09:01:14,-301.212,0.0,0.0
09:01:14,135.569,0.0,0.0
09:01:14,-146.294,0.0,0.0
09:01:14,-146.364,0.0,0.0
09:01:14,129.287,0.0,0.0
09:01:14,-313.586,0.0,0.0
09:01:14,125.353,0.0,0.0
09:01:14,-143.784,0.0,0.0
09:01:14,-153.644,0.0,0.0
09:01:14,132.486,0.0,0.0
09:01:14,-314.468,0.0,0.0
09:01:14,121.011,0.0,0.0
09:01:14,-138.409,0.0,0.0
09:01:14,-159.593,0.0,0.0
09:01:14,135.564,0.0,0.0
09:01:14,-315.044,0.0,0.0
09:01:14,116.261,0.0,0.0
09:01:14,-133.462,0.0,0.0
09:01:14,-166.224,0.0,0.0
09:01:14,137.584,0.0,0.0
09:01:14,-316.276,0.0,0.0
09:01:14,110.853,0.0,0.0
09:01:14,-129.234,0.0,0.0
09:01:14,-173.803,0.0,0.0
09:01:14,139.405,0.0,0.0
09:01:14,-317.181,0.0,0.0
09:01:14,106.3,0.0,0.0
09:01:14,-123.469,0.0,0.0
09:01:14,-178.553,0.0,0.0
09:01:14,143.559,0.0,0.0
09:01:14,-314.797,0.0,0.0
09:01:14,104.342,0.0,0.0
09:01:14,-114.832,0.0,0.0
09:01:14,-181.192,0.0,0.0
09:01:14,149.666,0.0,0.0
09:01:14,-311.984,0.0,0.0
09:01:14,102.505,0.0,0.0
09:01:14,-107.292,0.0,0.0
09:01:14,-185.469,0.0,0.0
09:01:15,153.958,0.0,0.0
09:01:15,-310.291,0.0,0.0
09:01:15,98.946,0.0,0.0
09:01:15,-100.268,0.0,0.0
09:01:15,-190.021,0.0,0.0
09:01:15,157.036,0.0,0.0
09:01:15,-309.052,0.0,0.0
09:01:15,94.854,0.0,0.0
09:01:15,-94.146,0.0,0.0
09:01:15,-194.891,0.0,0.0
09:01:15,159.434,0.0,0.0
09:01:15,-307.465,0.0,0.0
09:01:15,90.383,0.0,0.0
09:01:15,-88.081,0.0,0.0
09:01:15,-199.634,0.0,0.0
09:01:15,161.565,0.0,0.0
09:01:15,-305.903,0.0,0.0
09:01:15,85.613,0.0,0.0
09:01:15,-81.924,0.0,0.0
09:01:15,-204.268,0.0,0.0
09:01:15,164.124,0.0,0.0
09:01:15,-303.8,0.0,0.0
09:01:15,81.463,0.0,0.0
09:01:15,-75.281,0.0,0.0
09:01:15,-208.69,0.0,0.0
09:01:15,166.873,0.0,0.0
09:01:15,-301.944,0.0,0.0
09:01:15,77.186,0.0,0.0
09:01:15,-68.426,0.0,0.0
09:01:15,-213.032,0.0,0.0
09:01:15,169.444,0.0,0.0
09:01:15,-299.885,0.0,0.0
09:01:15,72.836,0.0,0.0
09:01:15,-62.049,0.0,0.0
09:01:15,-217.504,0.0,0.0
09:01:15,171.935,0.0,0.0
09:01:15,-298.166,0.0,0.0
09:01:15,67.586,0.0,0.0
09:01:15,-57.223,0.0,0.0
09:01:15,-223.78,0.0,0.0
09:01:15,171.644,0.0,0.0
09:01:15,-299.297,0.0,0.0
09:01:15,59.988,0.0,0.0
09:01:15,-52.429,0.0,0.0
09:01:15,-229.374,0.0,0.0
09:01:15,174.073,0.0,0.0
09:01:15,-295.09,0.0,0.0
09:01:15,58.711,0.0,0.0
09:01:15,-42.494,0.0,0.0
09:01:15,-230.833,0.0,0.0
09:01:15,178.585,0.0,0.0
09:01:15,-290.972,0.0,0.0
09:01:15,54.278,0.0,0.0
09:01:15,-35.856,0.0,0.0
09:01:15,-234.669,0.0,0.0
09:01:15,179.818,0.0,0.0
09:01:15,-288.984,0.0,0.0
09:01:15,43.811,0.0,0.0
09:01:15,-39.032,0.0,0.0
09:01:15,-246.466,0.0,0.0
09:01:15,180.745,0.0,0.0
09:01:15,-275.004,0.0,0.0
09:01:15,56.463,0.0,0.0
09:01:15,-17.392,0.0,0.0
09:01:15,-240.534,0.0,0.0
09:01:15,181.588,0.0,0.0
09:01:15,-283.087,0.0,0.0
09:01:15,37.288,0.0,0.0
09:01:15,-18.849,0.0,0.0
09:01:15,-247.684,0.0,0.0
09:01:15,180.607,0.0,0.0
09:01:15,-281.065,0.0,0.0
09:01:15,31.168,0.0,0.0
09:01:15,-13.407,0.0,0.0
09:01:15,-251.751,0.0,0.0
09:01:15,180.575,0.0,0.0
09:01:15,-278.294,0.0,0.0
09:01:15,24.918,0.0,0.0
09:01:15,-8.671,0.0,0.0
09:01:15,-257.144,0.0,0.0
09:01:15,179.469,0.0,0.0
09:01:15,-276.506,0.0,0.0
09:01:15,17.836,0.0,0.0
09:01:15,-4.02,0.0,0.0
09:01:15,-261.582,0.0,0.0
09:01:15,178.595,0.0,0.0
09:01:15,-274.506,0.0,0.0
09:01:15,11.308,0.0,0.0
09:01:15,1.358,0.0,0.0
09:01:15,-265.17,0.0,0.0
09:01:15,179.234,0.0,0.0
09:01:15,-269.987,0.0,0.0
09:01:15,7.339,0.0,0.0
09:01:15,9.342,0.0,0.0
09:01:15,-266.297,0.0,0.0
09:01:15,181.951,0.0,0.0
09:01:15,-264.006,0.0,0.0
09:01:15,3.939,0.0,0.0
09:01:15,17.193,0.0,0.0
09:01:15,-268.088,0.0,0.0
09:01:15,183.04,0.0,0.0
09:01:15,-259.479,0.0,0.0
09:01:15,-1.044,0.0,0.0
09:01:15,23.316,0.0,0.0
09:01:15,-270.879,0.0,0.0
09:01:15,183.084,0.0,0.0
09:01:15,-255.746,0.0,0.0
09:01:15,-6.932,0.0,0.0
09:01:15,28.996,0.0,0.0
09:01:15,-274.369,0.0,0.0
09:01:15,182.512,0.0,0.0
09:01:15,-252.459,0.0,0.0
09:01:15,-12.996,0.0,0.0
09:01:15,34.239,0.0,0.0
09:01:15,-277.686,0.0,0.0
09:01:15,181.696,0.0,0.0
09:01:15,-248.642,0.0,0.0
09:01:15,-18.864,0.0,0.0
09:01:15,39.751,0.0,0.0
09:01:15,-280.149,0.0,0.0
09:01:15,181.129,0.0,0.0
09:01:15,-244.187,0.0,0.0
09:01:15,-24.205,0.0,0.0
09:01:15,45.539,0.0,0.0
09:01:15,-282.329,0.0,0.0
09:01:16,180.569,0.0,0.0
09:01:16,-239.646,0.0,0.0
09:01:16,-29.836,0.0,0.0
09:01:16,51.139,0.0,0.0
09:01:16,-284.533,0.0,0.0
09:01:16,180.048,0.0,0.0
09:01:16,-235.094,0.0,0.0
09:01:16,-35.176,0.0,0.0
09:01:16,56.788,0.0,0.0
09:01:16,-286.641,0.0,0.0
09:01:16,179.137,0.0,0.0
09:01:16,-230.492,0.0,0.0
09:01:16,-40.86,0.0,0.0
09:01:16,62.491,0.0,0.0
09:01:16,-288.736,0.0,0.0
09:01:16,177.543,0.0,0.0
09:01:16,-227.303,0.0,0.0
09:01:16,-48.604,0.0,0.0
09:01:16,65.244,0.0,0.0
09:01:16,-293.607,0.0,0.0
09:01:16,172.799,0.0,0.0
09:01:16,-224.678,0.0,0.0
09:01:16,-55.102,0.0,0.0
09:01:16,70.011,0.0,0.0
09:01:16,-294.202,0.0,0.0
09:01:16,174.426,0.0,0.0
09:01:16,-216.615,0.0,0.0
09:01:16,-57.491,0.0,0.0
09:01:16,78.404,0.0,0.0
09:01:16,-293.537,0.0,0.0
09:01:16,174.308,0.0,0.0
09:01:16,-210.947,0.0,0.0
09:01:16,-62.691,0.0,0.0
09:01:16,83.722,0.0,0.0
09:01:16,-295.158,0.0,0.0
09:01:16,170.364,0.0,0.0
09:01:16,-213.941,0.0,0.0
09:01:16,-78.664,0.0,0.0
09:01:16,83.083,0.0,0.0
09:01:16,-291.571,0.0,0.0
09:01:16,184.14,0.0,0.0
09:01:16,-190.722,0.0,0.0
09:01:16,-70.136,0.0,0.0
09:01:16,93.829,0.0,0.0
09:01:16,-298.619,0.0,0.0
09:01:16,167.572,0.0,0.0
09:01:16,-197.509,0.0,0.0
09:01:16,-81.416,0.0,0.0
09:01:16,95.859,0.0,0.0
09:01:16,-301.249,0.0,0.0
09:01:16,164.121,0.0,0.0
09:01:16,-193.352,0.0,0.0
09:01:16,-87.798,0.0,0.0
09:01:16,99.373,0.0,0.0
09:01:16,-303.171,0.0,0.0
09:01:16,160.413,0.0,0.0
09:01:16,-189.504,0.0,0.0
09:01:16,-94.356,0.0,0.0
09:01:16,102.793,0.0,0.0
09:01:16,-305.306,0.0,0.0
09:01:16,157.39,0.0,0.0
09:01:16,-185.505,0.0,0.0
09:01:16,-101.734,0.0,0.0
09:01:16,105.658,0.0,0.0
09:01:16,-307.976,0.0,0.0
09:01:16,153.424,0.0,0.0
09:01:16,-181.34,0.0,0.0
09:01:16,-108.117,0.0,0.0
09:01:16,109.553,0.0,0.0
09:01:16,-308.764,0.0,0.0
09:01:16,151.509,0.0,0.0
09:01:16,-174.477,0.0,0.0
09:01:16,-111.581,0.0,0.0
09:01:16,116.444,0.0,0.0
09:01:16,-306.446,0.0,0.0
09:01:16,151.538,0.0,0.0
09:01:16,-167.226,0.0,0.0
09:01:16,-115.421,0.0,0.0
09:01:16,122.251,0.0,0.0
09:01:16,-306.199,0.0,0.0
09:01:16,149.733,0.0,0.0
09:01:16,-160.894,0.0,0.0
09:01:16,-120.406,0.0,0.0
09:01:16,126.281,0.0,0.0
09:01:16,-306.81,0.0,0.0
09:01:16,146.844,0.0,0.0
09:01:16,-155.585,0.0,0.0
09:01:16,-125.927,0.0,0.0
09:01:16,130.007,0.0,0.0
09:0