TimeStramp,ECG,SpO2,Respiration
10:02:50,-95.196,0.0,0.0
10:02:50,10.773,0.0,0.0
10:02:50,-114.424,0.0,0.0
10:02:50,-18.649,0.0,0.0
10:02:50,-46.339,0.0,0.0
10:02:50,-92.671,0.0,0.0
10:02:50,19.095,0.0,0.0
10:02:50,-105.448,0.0,0.0
10:02:51,-16.302,0.0,0.0
10:02:51,-53.587,0.0,0.0
10:02:51,-112.615,0.0,0.0
10:02:51,-2.996,0.0,0.0
10:02:51,-121.431,0.0,0.0
10:02:51,-23.696,0.0,0.0
10:02:51,-48.31,0.0,0.0
10:02:51,-99.115,0.0,0.0
10:02:51,8.994,0.0,0.0
10:02:51,-115.839,0.0,0.0
10:02:51,-21.577,0.0,0.0
10:02:51,-46.161,0.0,0.0
10:02:51,-98.864,0.0,0.0
10:02:51,10.596,0.0,0.0
10:02:51,-114.077,0.0,0.0
10:02:51,-20.936,0.0,0.0
10:02:51,-44.241,0.0,0.0
10:02:51,-97.988,0.0,0.0
10:02:51,11.996,0.0,0.0
10:02:51,-111.919,0.0,0.0
10:02:51,-19.696,0.0,0.0
10:02:51,-41.955,0.0,0.0
10:02:51,-96.559,0.0,0.0
10:02:51,13.955,0.0,0.0
10:02:51,-109.211,0.0,0.0
10:02:51,-18.016,0.0,0.0
10:02:51,-38.729,0.0,0.0
10:02:51,-94.279,0.0,0.0
10:02:51,16.087,0.0,0.0
10:02:51,-107.112,0.0,0.0
10:02:51,-17.322,0.0,0.0
10:02:51,-37.641,0.0,0.0
10:02:51,-94.622,0.0,0.0
10:02:51,15.515,0.0,0.0
10:02:51,-108.122,0.0,0.0
10:02:51,-19.874,0.0,0.0
10:02:51,-39.469,0.0,0.0
10:02:51,-97.566,0.0,0.0
10:02:51,13.253,0.0,0.0
10:02:51,-109.891,0.0,0.0
10:02:51,-21.377,0.0,0.0
10:02:51,-40.111,0.0,0.0
10:02:51,-99.486,0.0,0.0
10:02:51,12.8,0.0,0.0
10:02:51,-109.481,0.0,0.0
10:02:51,-22.305,0.0,0.0
10:02:51,-39.622,0.0,0.0
10:02:51,-98.631,0.0,0.0
10:02:51,13.883,0.0,0.0
10:02:51,-109.465,0.0,0.0
10:02:51,-23.037,0.0,0.0
10:02:51,-39.378,0.0,0.0
10:02:51,-99.682,0.0,0.0
10:02:51,13.338,0.0,0.0
10:02:51,-109.909,0.0,0.0
10:02:51,-24.083,0.0,0.0
10:02:51,-40.074,0.0,0.0
10:02:51,-101.639,0.0,0.0
10:02:51,12.03,0.0,0.0
10:02:51,-111.106,0.0,0.0
10:02:51,-25.432,0.0,0.0
10:02:51,-39.971,0.0,0.0
10:02:51,-102.648,0.0,0.0
10:02:51,11.856,0.0,0.0
10:02:51,-111.022,0.0,0.0
10:02:51,-27.056,0.0,0.0
10:02:51,-39.951,0.0,0.0
10:02:51,-104.132,0.0,0.0
10:02:51,10.523,0.0,0.0
10:02:51,-112.193,0.0,0.0
10:02:51,-28.241,0.0,0.0
10:02:51,-40.732,0.0,0.0
10:02:51,-106.252,0.0,0.0
10:02:51,9.869,0.0,0.0
10:02:51,-113.042,0.0,0.0
10:02:51,-28.33,0.0,0.0
10:02:51,-37.623,0.0,0.0
10:02:51,-104.392,0.0,0.0
10:02:51,13.534,0.0,0.0
10:02:51,-108.414,0.0,0.0
10:02:51,-25.416,0.0,0.0
10:02:51,-34.479,0.0,0.0
10:02:51,-103.585,0.0,0.0
10:02:51,13.318,0.0,0.0
10:02:51,-110.887,0.0,0.0
10:02:51,-29.456,0.0,0.0
10:02:51,-37.803,0.0,0.0
10:02:51,-107.839,0.0,0.0
10:02:51,11.153,0.0,0.0
10:02:51,-112.667,0.0,0.0
10:02:51,-31.934,0.0,0.0
10:02:51,-38.139,0.0,0.0
10:02:51,-109.124,0.0,0.0
10:02:51,11.716,0.0,0.0
10:02:51,-108.759,0.0,0.0
10:02:51,-23.681,0.0,0.0
10:02:51,-26.581,0.0,0.0
10:02:51,-103.68,0.0,0.0
10:02:51,8.239,0.0,0.0
10:02:51,-123.376,0.0,0.0
10:02:51,-44.297,0.0,0.0
10:02:51,-42.667,0.0,0.0
10:02:51,-112.206,0.0,0.0
10:02:51,11.108,0.0,0.0
10:02:51,-110.825,0.0,0.0
10:02:51,-32.406,0.0,0.0
10:02:51,-34.267,0.0,0.0
10:02:51,-107.881,0.0,0.0
10:02:51,13.268,0.0,0.0
10:02:51,-109.072,0.0,0.0
10:02:51,-31.734,0.0,0.0
10:02:51,-33.001,0.0,0.0
10:02:51,-108.111,0.0,0.0
10:02:51,13.871,0.0,0.0
10:02:51,-108.08,0.0,0.0
10:02:51,-31.389,0.0,0.0
10:02:51,-31.537,0.0,0.0
10:02:51,-107.66,0.0,0.0
10:02:51,14.473,0.0,0.0
10:02:51,-106.624,0.0,0.0
10:02:51,-31.078,0.0,0.0
10:02:51,-29.557,0.0,0.0
10:02:51,-106.126,0.0,0.0
10:02:51,15.996,0.0,0.0
10:02:51,-104.676,0.0,0.0
10:02:52,-31.049,0.0,0.0
10:02:52,-28.555,0.0,0.0
10:02:52,-106.459,0.0,0.0
10:02:52,15.233,0.0,0.0
10:02:52,-105.336,0.0,0.0
10:02:52,-32.922,0.0,0.0
10:02:52,-30.152,0.0,0.0
10:02:52,-109.667,0.0,0.0
10:02:52,12.318,0.0,0.0
10:02:52,-107.841,0.0,0.0
10:02:52,-35.891,0.0,0.0
10:02:52,-31.686,0.0,0.0
10:02:52,-111.888,0.0,0.0
10:02:52,11.351,0.0,0.0
10:02:52,-108.245,0.0,0.0
10:02:52,-36.727,0.0,0.0
10:02:52,-30.643,0.0,0.0
10:02:52,-111.927,0.0,0.0
10:02:52,11.966,0.0,0.0
10:02:52,-107.509,0.0,0.0
10:02:52,-37.617,0.0,0.0
10:02:52,-30.259,0.0,0.0
10:02:52,-112.548,0.0,0.0
10:02:52,12.158,0.0,0.0
10:02:52,-107.121,0.0,0.0
10:02:52,-37.971,0.0,0.0
10:02:52,-29.142,0.0,0.0
10:02:52,-112.377,0.0,0.0
10:02:52,12.403,0.0,0.0
10:02:52,-106.352,0.0,0.0
10:02:52,-38.029,0.0,0.0
10:02:52,-28.212,0.0,0.0
10:02:52,-112.221,0.0,0.0
10:02:52,12.951,0.0,0.0
10:02:52,-105.586,0.0,0.0
10:02:52,-38.528,0.0,0.0
10:02:52,-27.583,0.0,0.0
10:02:52,-112.741,0.0,0.0
10:02:52,12.669,0.0,0.0
10:02:52,-104.515,0.0,0.0
10:02:52,-38.169,0.0,0.0
10:02:52,-26.121,0.0,0.0
10:02:52,-111.867,0.0,0.0
10:02:52,14.609,0.0,0.0
10:02:52,-102.527,0.0,0.0
10:02:52,-38.184,0.0,0.0
10:02:52,-25.367,0.0,0.0
10:02:52,-113.434,0.0,0.0
10:02:52,11.423,0.0,0.0
10:02:52,-105.866,0.0,0.0
10:02:52,-42.484,0.0,0.0
10:02:52,-28.331,0.0,0.0
10:02:52,-116.25,0.0,0.0
10:02:52,9.744,0.0,0.0
10:02:52,-106.072,0.0,0.0
10:02:52,-43.641,0.0,0.0
10:02:52,-27.845,0.0,0.0
10:02:52,-115.694,0.0,0.0
10:02:52,12.041,0.0,0.0
10:02:52,-98.379,0.0,0.0
10:02:52,-35.001,0.0,0.0
10:02:52,-21.932,0.0,0.0
10:02:52,-118.384,0.0,0.0
10:02:52,-0.654,0.0,0.0
10:02:52,-114.768,0.0,0.0
10:02:52,-49.407,0.0,0.0
10:02:52,-27.994,0.0,0.0
10:02:52,-116.075,0.0,0.0
10:02:52,10.186,0.0,0.0
10:02:52,-103.235,0.0,0.0
10:02:52,-43.941,0.0,0.0
10:02:52,-25.291,0.0,0.0
10:02:52,-115.036,0.0,0.0
10:02:52,10.501,0.0,0.0
10:02:52,-102.904,0.0,0.0
10:02:52,-43.782,0.0,0.0
10:02:52,-22.954,0.0,0.0
10:02:52,-114.624,0.0,0.0
10:02:52,12.018,0.0,0.0
10:02:52,-100.584,0.0,0.0
10:02:52,-42.837,0.0,0.0
10:02:52,-20.978,0.0,0.0
10:02:52,-113.385,0.0,0.0
10:02:52,13.25,0.0,0.0
10:02:52,-98.949,0.0,0.0
10:02:52,-42.28,0.0,0.0
10:02:52,-19.502,0.0,0.0
10:02:52,-112.362,0.0,0.0
10:02:52,14.765,0.0,0.0
10:02:52,-97.099,0.0,0.0
10:02:52,-41.824,0.0,0.0
10:02:52,-18.449,0.0,0.0
10:02:52,-113.208,0.0,0.0
10:02:52,13.806,0.0,0.0
10:02:52,-98.479,0.0,0.0
10:02:52,-44.679,0.0,0.0
10:02:52,-19.922,0.0,0.0
10:02:52,-116.159,0.0,0.0
10:02:52,10.576,0.0,0.0
10:02:52,-100.509,0.0,0.0
10:02:52,-47.651,0.0,0.0
10:02:52,-21.649,0.0,0.0
10:02:52,-117.269,0.0,0.0
10:02:52,9.894,0.0,0.0
10:02:52,-100.141,0.0,0.0
10:02:52,-47.727,0.0,0.0
10:02:52,-20.554,0.0,0.0
10:02:52,-117.182,0.0,0.0
10:02:52,10.198,0.0,0.0
10:02:52,-99.459,0.0,0.0
10:02:52,-48.532,0.0,0.0
10:02:52,-20.409,0.0,0.0
10:02:52,-117.613,0.0,0.0
10:02:52,9.763,0.0,0.0
10:02:52,-98.822,0.0,0.0
10:02:52,-48.769,0.0,0.0
10:02:52,-19.566,0.0,0.0
10:02:52,-117.484,0.0,0.0
10:02:52,9.989,0.0,0.0
10:02:52,-98.037,0.0,0.0
10:02:52,-49.312,0.0,0.0
10:02:52,-18.642,0.0,0.0
10:02:52,-117.539,0.0,0.0
10:02:52,9.337,0.0,0.0
10:02:52,-97.807,0.0,0.0
10:02:53,-49.236,0.0,0.0
10:02:53,-17.326,0.0,0.0
10:02:53,-116.615,0.0,0.0
10:02:53,11.626,0.0,0.0
10:02:53,-94.006,0.0,0.0
10:02:53,-47.751,0.0,0.0
10:02:53,-15.069,0.0,0.0
10:02:53,-115.457,0.0,0.0
10:02:53,10.982,0.0,0.0
10:02:53,-96.234,0.0,0.0
10:02:53,-51.457,0.0,0.0
10:02:53,-18.144,0.0,0.0
10:02:53,-119.002,0.0,0.0
10:02:53,8.246,0.0,0.0
10:02:53,-97.471,0.0,0.0
10:02:53,-52.976,0.0,0.0
10:02:53,-17.921,0.0,0.0
10:02:53,-119.446,0.0,0.0
10:02:53,8.28,0.0,0.0
10:02:53,-95.357,0.0,0.0
10:02:53,-47.139,0.0,0.0
10:02:53,-7.642,0.0,0.0
10:02:53,-113.378,0.0,0.0
10:02:53,6.723,0.0,0.0
10:02:53,-106.651,0.0,0.0
10:02:53,-66.601,0.0,0.0
10:02:53,-23.099,0.0,0.0
10:02:53,-122.06,0.0,0.0
10:02:53,7.576,0.0,0.0
10:02:53,-94.802,0.0,0.0
10:02:53,-53.56,0.0,0.0
10:02:53,-15.129,0.0,0.0
10:02:53,-118.139,0.0,0.0
10:02:53,9.601,0.0,0.0
10:02:53,-92.829,0.0,0.0
10:02:53,-52.902,0.0,0.0
10:02:53,-13.234,0.0,0.0
10:02:53,-116.931,0.0,0.0
10:02:53,10.214,0.0,0.0
10:02:53,-91.141,0.0,0.0
10:02:53,-51.974,0.0,0.0
10:02:53,-11.878,0.0,0.0
10:02:53,-115.88,0.0,0.0
10:02:53,11.634,0.0,0.0
10:02:53,-89.32,0.0,0.0
10:02:53,-50.963,0.0,0.0
10:02:53,-9.357,0.0,0.0
10:02:53,-113.944,0.0,0.0
10:02:53,13.154,0.0,0.0
10:02:53,-87.092,0.0,0.0
10:02:53,-50.247,0.0,0.0
10:02:53,-8.267,0.0,0.0
10:02:53,-113.959,0.0,0.0
10:02:53,12.748,0.0,0.0
10:02:53,-87.516,0.0,0.0
10:02:53,-52.454,0.0,0.0
10:02:53,-9.981,0.0,0.0
10:02:53,-116.567,0.0,0.0
10:02:53,10.088,0.0,0.0
10:02:53,-89.406,0.0,0.0
10:02:53,-55.532,0.0,0.0
10:02:53,-11.149,0.0,0.0
10:02:53,-117.534,0.0,0.0
10:02:53,8.833,0.0,0.0
10:02:53,-89.899,0.0,0.0
10:02:53,-56.66,0.0,0.0
10:02:53,-11.766,0.0,0.0
10:02:53,-119.155,0.0,0.0
10:02:53,7.509,0.0,0.0
10:02:53,-90.262,0.0,0.0
10:02:53,-57.813,0.0,0.0
10:02:53,-11.633,0.0,0.0
10:02:53,-119.566,0.0,0.0
10:02:53,8.031,0.0,0.0
10:02:53,-89.411,0.0,0.0
10:02:53,-57.784,0.0,0.0
10:02:53,-9.953,0.0,0.0
10:02:53,-118.974,0.0,0.0
10:02:53,8.383,0.0,0.0
10:02:53,-88.617,0.0,0.0
10:02:53,-58.32,0.0,0.0
10:02:53,-9.655,0.0,0.0
10:02:53,-119.372,0.0,0.0
10:02:53,7.993,0.0,0.0
10:02:53,-88.493,0.0,0.0
10:02:53,-59.324,0.0,0.0
10:02:53,-9.137,0.0,0.0
10:02:53,-119.17,0.0,0.0
10:02:53,7.826,0.0,0.0
10:02:53,-87.289,0.0,0.0
10:02:53,-59.503,0.0,0.0
10:02:53,-8.489,0.0,0.0
10:02:53,-117.675,0.0,0.0
10:02:53,9.584,0.0,0.0
10:02:53,-84.755,0.0,0.0
10:02:53,-57.861,0.0,0.0
10:02:53,-5.361,0.0,0.0
10:02:53,-115.762,0.0,0.0
10:02:53,10.229,0.0,0.0
10:02:53,-83.608,0.0,0.0
10:02:53,-58.605,0.0,0.0
10:02:53,-7.213,0.0,0.0
10:02:53,-119.154,0.0,0.0
10:02:53,6.397,0.0,0.0
10:02:53,-87.343,0.0,0.0
10:02:53,-63.341,0.0,0.0
10:02:53,-9.822,0.0,0.0
10:02:53,-121.417,0.0,0.0
10:02:53,4.876,0.0,0.0
10:02:53,-86.625,0.0,0.0
10:02:53,-63.089,0.0,0.0
10:02:53,-6.796,0.0,0.0
10:02:53,-114.12,0.0,0.0
10:02:53,15.963,0.0,0.0
10:02:53,-79.054,0.0,0.0
10:02:53,-64.878,0.0,0.0
10:02:53,-19.533,0.0,0.0
10:02:53,-135.464,0.0,0.0
10:02:53,-2.607,0.0,0.0
10:02:53,-87.611,0.0,0.0
10:02:53,-64.058,0.0,0.0
10:02:53,-6.742,0.0,0.0
10:02:53,-119.324,0.0,0.0
10:02:53,5.939,0.0,0.0
10:02:53,-83.04,0.0,0.0
10:02:53,-62.736,0.0,0.0
10:02:54,-4.983,0.0,0.0
10:02:54,-118.266,0.0,0.0
10:02:54,6.819,0.0,0.0
10:02:54,-81.497,0.0,0.0
10:02:54,-62.518,0.0,0.0
10:02:54,-3.89,0.0,0.0
10:02:54,-117.385,0.0,0.0
10:02:54,7.608,0.0,0.0
10:02:54,-79.148,0.0,0.0
10:02:54,-61.159,0.0,0.0
10:02:54,-1.42,0.0,0.0
10:02:54,-115.323,0.0,0.0
10:02:54,8.961,0.0,0.0
10:02:54,-76.939,0.0,0.0
10:02:54,-60.565,0.0,0.0
10:02:54,0.133,0.0,0.0
10:02:54,-114.281,0.0,0.0
10:02:54,9.834,0.0,0.0
10:02:54,-75.291,0.0,0.0
10:02:54,-60.348,0.0,0.0
10:02:54,0.506,0.0,0.0
10:02:54,-114.991,0.0,0.0
10:02:54,7.242,0.0,0.0
10:02:54,-78.264,0.0,0.0
10:02:54,-64.744,0.0,0.0
10:02:54,-3.2,0.0,0.0
10:02:54,-118.946,0.0,0.0
10:02:54,4.306,0.0,0.0
10:02:54,-79.71,0.0,0.0
10:02:54,-67.144,0.0,0.0
10:02:54,-3.981,0.0,0.0
10:02:54,-119.596,0.0,0.0
10:02:54,3.669,0.0,0.0
10:02:54,-79.094,0.0,0.0
10:02:54,-67.189,0.0,0.0
10:02:54,-2.971,0.0,0.0
10:02:54,-119.339,0.0,0.0
10:02:54,3.73,0.0,0.0
10:02:54,-78.195,0.0,0.0
10:02:54,-67.529,0.0,0.0
10:02:54,-2.365,0.0,0.0
10:02:54,-118.913,0.0,0.0
10:02:54,4.009,0.0,0.0
10:02:54,-76.971,0.0,0.0
10:02:54,-67.577,0.0,0.0
10:02:54,-1.895,0.0,0.0
10:02:54,-118.985,0.0,0.0
10:02:54,3.086,0.0,0.0
10:02:54,-77.384,0.0,0.0
10:02:54,-69.565,0.0,0.0
10:02:54,-2.389,0.0,0.0
10:02:54,-119.827,0.0,0.0
10:02:54,2.132,0.0,0.0
10:02:54,-77.136,0.0,0.0
10:02:54,-70.391,0.0,0.0
10:02:54,-2.705,0.0,0.0
10:02:54,-120.921,0.0,0.0
10:02:54,1.084,0.0,0.0
10:02:54,-76.856,0.0,0.0
10:02:54,-71.187,0.0,0.0
10:02:54,-1.975,0.0,0.0
10:02:54,-120.575,0.0,0.0
10:02:54,1.292,0.0,0.0
10:02:54,-76.037,0.0,0.0
10:02:54,-71.379,0.0,0.0
10:02:54,-1.201,0.0,0.0
10:02:54,-119.706,0.0,0.0
10:02:54,2.77,0.0,0.0
10:02:54,-73.426,0.0,0.0
10:02:54,-70.108,0.0,0.0
10:02:54,1.972,0.0,0.0
10:02:54,-117.286,0.0,0.0
10:02:54,4.098,0.0,0.0
10:02:54,-72.023,0.0,0.0
10:02:54,-70.254,0.0,0.0
10:02:54,1.359,0.0,0.0
10:02:54,-120.456,0.0,0.0
10:02:54,0.376,0.0,0.0
10:02:54,-75.307,0.0,0.0
10:02:54,-74.787,0.0,0.0
10:02:54,-1.032,0.0,0.0
10:02:54,-121.879,0.0,0.0
10:02:54,-0.761,0.0,0.0
10:02:54,-74.883,0.0,0.0
10:02:54,-75.104,0.0,0.0
10:02:54,0.094,0.0,0.0
10:02:54,-118.124,0.0,0.0
10:02:54,8.917,0.0,0.0
10:02:54,-62.639,0.0,0.0
10:02:54,-70.964,0.0,0.0
10:02:54,-5.655,0.0,0.0
10:02:54,-137.246,0.0,0.0
10:02:54,-15.106,0.0,0.0
10:02:54,-79.266,0.0,0.0
10:02:54,-78.035,0.0,0.0
10:02:54,0.104,0.0,0.0
10:02:54,-120.606,0.0,0.0
10:02:54,-0.544,0.0,0.0
10:02:54,-71.402,0.0,0.0
10:02:54,-75.016,0.0,0.0
10:02:54,2.235,0.0,0.0
10:02:54,-119.357,0.0,0.0
10:02:54,0.011,0.0,0.0
10:02:54,-69.84,0.0,0.0
10:02:54,-74.892,0.0,0.0
10:02:54,3.59,0.0,0.0
10:02:54,-118.138,0.0,0.0
10:02:54,0.845,0.0,0.0
10:02:54,-67.783,0.0,0.0
10:02:54,-73.82,0.0,0.0
10:02:54,5.559,0.0,0.0
10:02:54,-116.061,0.0,0.0
10:02:54,2.283,0.0,0.0
10:02:54,-65.086,0.0,0.0
10:02:54,-71.937,0.0,0.0
10:02:54,7.889,0.0,0.0
10:02:54,-114.54,0.0,0.0
10:02:54,3.306,0.0,0.0
10:02:54,-63.582,0.0,0.0
10:02:54,-72.389,0.0,0.0
10:02:54,7.949,0.0,0.0
10:02:54,-115.041,0.0,0.0
10:02:54,1.493,0.0,0.0
10:02:54,-65.272,0.0,0.0
10:02:54,-75.656,0.0,0.0
10:02:55,5.162,0.0,0.0
10:02:55,-118.332,0.0,0.0
10:02:55,-1.906,0.0,0.0
10:02:55,-67.387,0.0,0.0
10:02:55,-78.528,0.0,0.0
10:02:55,3.716,0.0,0.0
10:02:55,-119.606,0.0,0.0
10:02:55,-3.227,0.0,0.0
10:02:55,-67.311,0.0,0.0
10:02:55,-79.392,0.0,0.0
10:02:55,4.058,0.0,0.0
10:02:55,-119.467,0.0,0.0
10:02:55,-3.566,0.0,0.0
10:02:55,-66.518,0.0,0.0
10:02:55,-79.563,0.0,0.0
10:02:55,4.98,0.0,0.0
10:02:55,-118.858,0.0,0.0
10:02:55,-3.348,0.0,0.0
10:02:55,-65.156,0.0,0.0
10:02:55,-79.561,0.0,0.0
10:02:55,5.468,0.0,0.0
10:02:55,-118.666,0.0,0.0
10:02:55,-3.606,0.0,0.0
10:02:55,-64.562,0.0,0.0
10:02:55,-80.354,0.0,0.0
10:02:55,5.296,0.0,0.0
10:02:55,-119.377,0.0,0.0
10:02:55,-4.589,0.0,0.0
10:02:55,-64.388,0.0,0.0
10:02:55,-81.435,0.0,0.0
10:02:55,5.786,0.0,0.0
10:02:55,-119.195,0.0,0.0
10:02:55,-5.094,0.0,0.0
10:02:55,-64.144,0.0,0.0
10:02:55,-82.241,0.0,0.0
10:02:55,5.731,0.0,0.0
10:02:55,-119.594,0.0,0.0
10:02:55,-5.741,0.0,0.0
10:02:55,-63.694,0.0,0.0
10:02:55,-83.25,0.0,0.0
10:02:55,5.689,0.0,0.0
10:02:55,-119.629,0.0,0.0
10:02:55,-6.526,0.0,0.0
10:02:55,-63.331,0.0,0.0
10:02:55,-83.891,0.0,0.0
10:02:55,5.683,0.0,0.0
10:02:55,-119.834,0.0,0.0
10:02:55,-7.067,0.0,0.0
10:02:55,-62.746,0.0,0.0
10:02:55,-83.671,0.0,0.0
10:02:55,7.769,0.0,0.0
10:02:55,-117.506,0.0,0.0
10:02:55,-5.309,0.0,0.0
10:02:55,-58.37,0.0,0.0
10:02:55,-80.741,0.0,0.0
10:02:55,9.684,0.0,0.0
10:02:55,-116.021,0.0,0.0
10:02:55,-5.262,0.0,0.0
10:02:55,-59.731,0.0,0.0
10:02:55,-84.767,0.0,0.0
10:02:55,6.212,0.0,0.0
10:02:55,-119.829,0.0,0.0
10:02:55,-9.057,0.0,0.0
10:02:55,-61.539,0.0,0.0
10:02:55,-86.989,0.0,0.0
10:02:55,5.548,0.0,0.0
10:02:55,-120.062,0.0,0.0
10:02:55,-9.96,0.0,0.0
10:02:55,-60.377,0.0,0.0
10:02:55,-82.736,0.0,0.0
10:02:55,16.809,0.0,0.0
10:02:55,-109.094,0.0,0.0
10:02:55,-7.52,0.0,0.0
10:02:55,-69.121,0.0,0.0
10:02:55,-105.507,0.0,0.0
10:02:55,-6.785,0.0,0.0
10:02:55,-125.246,0.0,0.0
10:02:55,-12.521,0.0,0.0
10:02:55,-59.469,0.0,0.0
10:02:55,-87.792,0.0,0.0
10:02:55,7.119,0.0,0.0
10:02:55,-118.332,0.0,0.0
10:02:55,-9.724,0.0,0.0
10:02:55,-57.614,0.0,0.0
10:02:55,-87.697,0.0,0.0
10:02:55,8.309,0.0,0.0
10:02:55,-117.382,0.0,0.0
10:02:55,-9.491,0.0,0.0
10:02:55,-56.152,0.0,0.0
10:02:55,-87.305,0.0,0.0
10:02:55,10.046,0.0,0.0
10:02:55,-115.481,0.0,0.0
10:02:55,-8.005,0.0,0.0
10:02:55,-53.248,0.0,0.0
10:02:55,-85.548,0.0,0.0
10:02:55,12.485,0.0,0.0
10:02:55,-113.116,0.0,0.0
10:02:55,-5.984,0.0,0.0
10:02:55,-50.497,0.0,0.0
10:02:55,-84.208,0.0,0.0
10:02:55,14.293,0.0,0.0
10:02:55,-112.178,0.0,0.0
10:02:55,-6.373,0.0,0.0
10:02:55,-50.182,0.0,0.0
10:02:55,-85.783,0.0,0.0
10:02:55,13.152,0.0,0.0
10:02:55,-114.104,0.0,0.0
10:02:55,-9.463,0.0,0.0
10:02:55,-52.514,0.0,0.0
10:02:55,-89.597,0.0,0.0
10:02:55,10.393,0.0,0.0
10:02:55,-117.175,0.0,0.0
10:02:55,-12.056,0.0,0.0
10:02:55,-53.332,0.0,0.0
10:02:55,-91.878,0.0,0.0
10:02:55,10.28,0.0,0.0
10:02:55,-117.589,0.0,0.0
10:02:55,-12.694,0.0,0.0
10:02:55,-52.677,0.0,0.0
10:02:55,-92.537,0.0,0.0
10:02:55,10.966,0.0,0.0
10:02:55,-117.652,0.0,0.0
10:02:55,-12.964,0.0,0.0
10:02:55,-51.889,0.0,0.0
10:02:55,-93.111,0.0,0.0
10:02:56,11.836,0.0,0.0
10:02:56,-117.334,0.0,0.0
10:02:56,-12.961,0.0,0.0
10:02:56,-50.949,0.0,0.0
10:02:56,-93.961,0.0,0.0
10:02:56,12.536,0.0,0.0
10:02:56,-117.461,0.0,0.0
10:02:56,-13.516,0.0,0.0
10:02:56,-50.013,0.0,0.0
10:02:56,-94.956,0.0,0.0
10:02:56,12.763,0.0,0.0
10:02:56,-117.917,0.0,0.0
10:02:56,-14.181,0.0,0.0
10:02:56,-49.528,0.0,0.0
10:02:56,-96.142,0.0,0.0
10:02:56,13.401,0.0,0.0
10:02:56,-118.787,0.0,0.0
10:02:56,-15.571,0.0,0.0
10:02:56,-49.363,0.0,0.0
10:02:56,-98.049,0.0,0.0
10:02:56,13.611,0.0,0.0
10:02:56,-118.991,0.0,0.0
10:02:56,-15.889,0.0,0.0
10:02:56,-48.654,0.0,0.0
10:02:56,-98.968,0.0,0.0
10:02:56,14.066,0.0,0.0
10:02:56,-119.794,0.0,0.0
10:02:56,-16.694,0.0,0.0
10:02:56,-47.984,0.0,0.0
10:02:56,-100.753,0.0,0.0
10:02:56,14.914,0.0,0.0
10:02:56,-121.81,0.0,0.0
10:02:56,-16.306,0.0,0.0
10:02:56,-50.069,0.0,0.0
10:02:56,-111.28,0.0,0.0
10:02:56,18.989,0.0,0.0
10:02:56,-132.946,0.0,0.0
10:02:56,-17.678,0.0,0.0
10:02:56,-45.772,0.0,0.0
10:02:56,-117.008,0.0,0.0
10:02:56,29.073,0.0,0.0
10:02:56,-135.577,0.0,0.0
10:02:56,-17.156,0.0,0.0
10:02:56,-41.674,0.0,0.0
10:02:56,-122.581,0.0,0.0
10:02:56,29.945,0.0,0.0
10:02:56,-139.196,0.0,0.0
10:02:56,-20.019,0.0,0.0
10:02:56,-42.093,0.0,0.0
10:02:56,-127.41,0.0,0.0
10:02:56,28.539,0.0,0.0
10:02:56,-144.212,0.0,0.0
10:02:56,-24.174,0.0,0.0
10:02:56,-39.185,0.0,0.0
10:02:56,-122.503,0.0,0.0
10:02:56,39.468,0.0,0.0
10:02:56,-125.979,0.0,0.0
10:02:56,-2.763,0.0,0.0
10:02:56,-21.752,0.0,0.0
10:02:56,-116.767,0.0,0.0
10:02:56,31.976,0.0,0.0
10:02:56,-143.196,0.0,0.0
10:02:56,-22.812,0.0,0.0
10:02:56,-33.396,0.0,0.0
10:02:56,-118.306,0.0,0.0
10:02:56,41.12,0.0,0.0
10:02:56,-123.444,0.0,0.0
10:02:56,-9.682,0.0,0.0
10:02:56,-24.706,0.0,0.0
10:02:56,-112.221,0.0,0.0
10:02:56,39.709,0.0,0.0
10:02:56,-124.021,0.0,0.0
10:02:56,-12.064,0.0,0.0
10:02:56,-25.277,0.0,0.0
10:02:56,-111.219,0.0,0.0
10:02:56,40.921,0.0,0.0
10:02:56,-118.131,0.0,0.0
10:02:56,-9.43,0.0,0.0
10:02:56,-23.779,0.0,0.0
10:02:56,-108.504,0.0,0.0
10:02:56,40.755,0.0,0.0
10:02:56,-114.568,0.0,0.0
10:02:56,-7.592,0.0,0.0
10:02:56,-20.244,0.0,0.0
10:02:56,-103.296,0.0,0.0
10:02:56,41.244,0.0,0.0
10:02:56,-110.175,0.0,0.0
10:02:56,-5.866,0.0,0.0
10:02:56,-20.531,0.0,0.0
10:02:56,-107.141,0.0,0.0
10:02:56,33.696,0.0,0.0
10:02:56,-117.492,0.0,0.0
10:02:56,-18.552,0.0,0.0
10:02:56,-30.492,0.0,0.0
10:02:56,-113.251,0.0,0.0
10:02:56,27.337,0.0,0.0
10:02:56,-121.224,0.0,0.0
10:02:56,-23.971,0.0,0.0
10:02:56,-34.329,0.0,0.0
10:02:56,-116.344,0.0,0.0
10:02:56,24.271,0.0,0.0
10:02:56,-119.392,0.0,0.0
10:02:56,-22.67,0.0,0.0
10:02:56,-32.342,0.0,0.0
10:02:56,-115.904,0.0,0.0
10:02:56,21.699,0.0,0.0
10:02:56,-123.153,0.0,0.0
10:02:56,-28.961,0.0,0.0
10:02:56,-36.489,0.0,0.0
10:02:56,-119.983,0.0,0.0
10:02:56,19.273,0.0,0.0
10:02:56,-122.565,0.0,0.0
10:02:56,-27.581,0.0,0.0
10:02:56,-30.832,0.0,0.0
10:02:56,-111.832,0.0,0.0
10:02:56,28.579,0.0,0.0
10:02:56,-112.517,0.0,0.0
10:02:56,-20.039,0.0,0.0
10:02:56,-24.864,0.0,0.0
10:02:56,-109.232,0.0,0.0
10:02:56,29.278,0.0,0.0
10:02:56,-113.449,0.0,0.0
10:02:56,-23.846,0.0,0.0
10:02:56,-29.483,0.0,0.0
10:02:56,-115.945,0.0,0.0
10:02:57,23.201,0.0,0.0
10:02:57,-119.866,0.0,0.0
10:02:57,-29.843,0.0,0.0
10:02:57,-31.381,0.0,0.0
10:02:57,-118.028,0.0,0.0
10:02:57,20.964,0.0,0.0
10:02:57,-123.559,0.0,0.0
10:02:57,-33.408,0.0,0.0
10:02:57,-31.706,0.0,0.0
10:02:57,-116.634,0.0,0.0
10:02:57,23.111,0.0,0.0
10:02:57,-116.936,0.0,0.0
10:02:57,-28.944,0.0,0.0
10:02:57,-28.54,0.0,0.0
10:02:57,-114.171,0.0,0.0
10:02:57,25.164,0.0,0.0
10:02:57,-110.796,0.0,0.0
10:02:57,-24.245,0.0,0.0
10:02:57,-22.774,0.0,0.0
10:02:57,-107.547,0.0,0.0
10:02:57,28.979,0.0,0.0
10:02:57,-107.432,0.0,0.0
10:02:57,-27.674,0.0,0.0
10:02:57,-29.767,0.0,0.0
10:02:57,-118.327,0.0,0.0
10:02:57,14.126,0.0,0.0
10:02:57,-116.797,0.0,0.0
10:02:57,-36.025,0.0,0.0
10:02:57,-34.381,0.0,0.0
10:02:57,-118.831,0.0,0.0
10:02:57,12.818,0.0,0.0
10:02:57,-116.837,0.0,0.0
10:02:57,-36.817,0.0,0.0
10:02:57,-28.762,0.0,0.0
10:02:57,-109.623,0.0,0.0
10:02:57,14.778,0.0,0.0
10:02:57,-122.98,0.0,0.0
10:02:57,-56.829,0.0,0.0
10:02:57,-49.635,0.0,0.0
10:02:57,-122.942,0.0,0.0
10:02:57,13.247,0.0,0.0
10:02:57,-110.094,0.0,0.0
10:02:57,-30.547,0.0,0.0
10:02:57,-21.64,0.0,0.0
10:02:57,-104.582,0.0,0.0
10:02:57,26.081,0.0,0.0
10:02:57,-102.212,0.0,0.0
10:02:57,-27.424,0.0,0.0
10:02:57,-20.892,0.0,0.0
10:02:57,-107.275,0.0,0.0
10:02:57,24.962,0.0,0.0
10:02:57,-102.322,0.0,0.0
10:02:57,-27.041,0.0,0.0
10:02:57,-20.1,0.0,0.0
10:02:57,-108.767,0.0,0.0
10:02:57,23.766,0.0,0.0
10:02:57,-104.245,0.0,0.0
10:02:57,-29.589,0.0,0.0
10:02:57,-20.324,0.0,0.0
10:02:57,-109.632,0.0,0.0
10:02:57,24.635,0.0,0.0
10:02:57,-102.169,0.0,0.0
10:02:57,-29.909,0.0,0.0
10:02:57,-22.426,0.0,0.0
10:02:57,-114.025,0.0,0.0
10:02:57,22.352,0.0,0.0
10:02:57,-103.741,0.0,0.0
10:02:57,-33.069,0.0,0.0
10:02:57,-23.395,0.0,0.0
10:02:57,-115.893,0.0,0.0
10:02:57,17.822,0.0,0.0
10:02:57,-107.201,0.0,0.0
10:02:57,-34.154,0.0,0.0
10:02:57,-19.799,0.0,0.0
10:02:57,-112.323,0.0,0.0
10:02:57,20.363,0.0,0.0
10:02:57,-105.894,0.0,0.0
10:02:57,-37.359,0.0,0.0
10:02:57,-23.66,0.0,0.0
10:02:57,-116.272,0.0,0.0
10:02:57,16.543,0.0,0.0
10:02:57,-108.04,0.0,0.0
10:02:57,-40.317,0.0,0.0
10:02:57,-24.251,0.0,0.0
10:02:57,-115.962,0.0,0.0
10:02:57,18.181,0.0,0.0
10:02:57,-104.229,0.0,0.0
10:02:57,-37.201,0.0,0.0
10:02:57,-20.499,0.0,0.0
10:02:57,-114.452,0.0,0.0
10:02:57,18.909,0.0,0.0
10:02:57,-103.941,0.0,0.0
10:02:57,-38.189,0.0,0.0
10:02:57,-20.074,0.0,0.0
10:02:57,-114.391,0.0,0.0
10:02:57,19.477,0.0,0.0
10:02:57,-102.843,0.0,0.0
10:02:57,-37.604,0.0,0.0
10:02:57,-19.128,0.0,0.0
10:02:57,-114.981,0.0,0.0
10:02:57,19.751,0.0,0.0
10:02:57,-102.901,0.0,0.0
10:02:57,-38.742,0.0,0.0
10:02:57,-18.987,0.0,0.0
10:02:57,-115.605,0.0,0.0
10:02:57,18.896,0.0,0.0
10:02:57,-103.172,0.0,0.0
10:02:57,-39.854,0.0,0.0
10:02:57,-19.264,0.0,0.0
10:02:57,-116.521,0.0,0.0
10:02:57,20.049,0.0,0.0
10:02:57,-101.731,0.0,0.0
10:02:57,-39.976,0.0,0.0
10:02:57,-17.941,0.0,0.0
10:02:57,-116.849,0.0,0.0
10:02:57,18.039,0.0,0.0
10:02:57,-103.154,0.0,0.0
10:02:57,-42.886,0.0,0.0
10:02:57,-19.97,0.0,0.0
10:02:57,-119.599,0.0,0.0
10:02:57,14.872,0.0,0.0
10:02:57,-104.951,0.0,0.0
10:02:57,-45.72,0.0,0.0
10:02:57,-21.146,0.0,0.0
10:02:58,-121.051,0.0,0.0
10:02:58,14.899,0.0,0.0
10:02:58,-99.251,0.0,0.0
10:02:58,-37.082,0.0,0.0
10:02:58,-13.265,0.0,0.0
10:02:58,-120.532,0.0,0.0
10:02:58,5.044,0.0,0.0
10:02:58,-116.708,0.0,0.0
10:02:58,-55.142,0.0,0.0
10:02:58,-23.322,0.0,0.0
10:02:58,-121.62,0.0,0.0
10:02:58,14.476,0.0,0.0
10:02:58,-101.744,0.0,0.0
10:02:58,-45.597,0.0,0.0
10:02:58,-17.262,0.0,0.0
10:02:58,-118.729,0.0,0.0
10:02:58,16.434,0.0,0.0
10:02:58,-99.277,0.0,0.0
10:02:58,-44.123,0.0,0.0
10:02:58,-14.389,0.0,0.0
10:02:58,-116.919,0.0,0.0
10:02:58,18.616,0.0,0.0
10:02:58,-97.036,0.0,0.0
10:02:58,-43.149,0.0,0.0
10:02:58,-12.474,0.0,0.0
10:02:58,-116.362,0.0,0.0
10:02:58,19.59,0.0,0.0
10:02:58,-96.616,0.0,0.0
10:02:58,-44.146,0.0,0.0
10:02:58,-11.85,0.0,0.0
10:02:58,-117.069,0.0,0.0
10:02:58,19.611,0.0,0.0
10:02:58,-95.264,0.0,0.0
10:02:58,-43.295,0.0,0.0
10:02:58,-10.322,0.0,0.0
10:02:58,-116.635,0.0,0.0
10:02:58,18.892,0.0,0.0
10:02:58,-96.457,0.0,0.0
10:02:58,-46.457,0.0,0.0
10:02:58,-13.323,0.0,0.0
10:02:58,-120.449,0.0,0.0
10:02:58,15.282,0.0,0.0
10:02:58,-98.939,0.0,0.0
10:02:58,-50.09,0.0,0.0
10:02:58,-14.839,0.0,0.0
10:02:58,-120.63,0.0,0.0
10:02:58,14.042,0.0,0.0
10:02:58,-97.747,0.0,0.0
10:02:58,-49.674,0.0,0.0
10:02:58,-13.698,0.0,0.0
10:02:58,-118.977,0.0,0.0
10:02:58,14.067,0.0,0.0
10:02:58,-96.255,0.0,0.0
10:02:58,-49.627,0.0,0.0
10:02:58,-13.316,0.0,0.0
10:02:58,-118.948,0.0,0.0
10:02:58,13.944,0.0,0.0
10:02:58,-95.219,0.0,0.0
10:02:58,-50.265,0.0,0.0
10:02:58,-12.987,0.0,0.0
10:02:58,-119.118,0.0,0.0
10:02:58,13.842,0.0,0.0
10:02:58,-94.757,0.0,0.0
10:02:58,-50.266,0.0,0.0
10:02:58,-11.387,0.0,0.0
10:02:58,-118.192,0.0,0.0
10:02:58,14.723,0.0,0.0
10:02:58,-93.686,0.0,0.0
10:02:58,-50.564,0.0,0.0
10:02:58,-10.837,0.0,0.0
10:02:58,-118.978,0.0,0.0
10:02:58,15.039,0.0,0.0
10:02:58,-92.112,0.0,0.0
10:02:58,-49.854,0.0,0.0
10:02:58,-8.964,0.0,0.0
10:02:58,-117.051,0.0,0.0
10:02:58,17.168,0.0,0.0
10:02:58,-90.506,0.0,0.0
10:02:58,-49.697,0.0,0.0
10:02:58,-8.032,0.0,0.0
10:02:58,-118.909,0.0,0.0
10:02:58,14.377,0.0,0.0
10:02:58,-93.692,0.0,0.0
10:02:58,-54.507,0.0,0.0
10:02:58,-11.381,0.0,0.0
10:02:58,-122.101,0.0,0.0
10:02:58,12.031,0.0,0.0
10:02:58,-94.548,0.0,0.0
10:02:58,-55.472,0.0,0.0
10:02:58,-10.926,0.0,0.0
10:02:58,-121.362,0.0,0.0
10:02:58,14.642,0.0,0.0
10:02:58,-86.079,0.0,0.0
10:02:58,-45.672,0.0,0.0
10:02:58,-4.334,0.0,0.0
10:02:58,-123.662,0.0,0.0
10:02:58,0.786,0.0,0.0
10:02:58,-104.486,0.0,0.0
10:02:58,-62.09,0.0,0.0
10:02:58,-11.92,0.0,0.0
10:02:58,-121.927,0.0,0.0
10:02:58,11.512,0.0,0.0
10:02:58,-91.516,0.0,0.0
10:02:58,-56.414,0.0,0.0
10:02:58,-9.043,0.0,0.0
10:02:58,-120.844,0.0,0.0
10:02:58,11.918,0.0,0.0
10:02:58,-90.607,0.0,0.0
10:02:58,-55.937,0.0,0.0
10:02:58,-7.642,0.0,0.0
10:02:58,-119.75,0.0,0.0
10:02:58,13.146,0.0,0.0
10:02:58,-87.685,0.0,0.0
10:02:58,-54.756,0.0,0.0
10:02:58,-5.163,0.0,0.0
10:02:58,-117.381,0.0,0.0
10:02:58,15.168,0.0,0.0
10:02:58,-84.887,0.0,0.0
10:02:58,-52.784,0.0,0.0
10:02:58,-2.24,0.0,0.0
10:02:58,-115.392,0.0,0.0
10:02:58,17.596,0.0,0.0
10:02:58,-82.4,0.0,0.0
10:02:58,-51.622,0.0,0.0
10:02:58,-0.152,0.0,0.0
10:02:59,-115.694,0.0,0.0
10:02:59,17.289,0.0,0.0
10:02:59,-83.449,0.0,0.0
10:02:59,-54.276,0.0,0.0
10:02:59,-2.038,0.0,0.0
10:02:59,-118.917,0.0,0.0
10:02:59,14.179,0.0,0.0
10:02:59,-86.144,0.0,0.0
10:02:59,-57.66,0.0,0.0
10:02:59,-3.359,0.0,0.0
10:02:59,-121.237,0.0,0.0
10:02:59,13.406,0.0,0.0
10:02:59,-86.114,0.0,0.0
10:02:59,-58.337,0.0,0.0
10:02:59,-2.591,0.0,0.0
10:02:59,-120.836,0.0,0.0
10:02:59,13.5,0.0,0.0
10:02:59,-85.468,0.0,0.0
10:02:59,-58.764,0.0,0.0
10:02:59,-1.894,0.0,0.0
10:02:59,-120.761,0.0,0.0
10:02:59,13.709,0.0,0.0
10:02:59,-83.977,0.0,0.0
10:02:59,-58.664,0.0,0.0
10:02:59,-1.367,0.0,0.0
10:02:59,-120.602,0.0,0.0
10:02:59,13.269,0.0,0.0
10:02:59,-83.866,0.0,0.0
10:02:59,-59.781,0.0,0.0
10:02:59,-1.471,0.0,0.0
10:02:59,-121.058,0.0,0.0
10:02:59,12.013,0.0,0.0
10:02:59,-83.469,0.0,0.0
10:02:59,-60.44,0.0,0.0
10:02:59,-1.596,0.0,0.0
10:02:59,-121.431,0.0,0.0
10:02:59,11.528,0.0,0.0
10:02:59,-83.006,0.0,0.0
10:02:59,-61.567,0.0,0.0
10:02:59,-1.472,0.0,0.0
10:02:59,-120.671,0.0,0.0
10:02:59,11.589,0.0,0.0
10:02:59,-81.028,0.0,0.0
10:02:59,-59.494,0.0,0.0
10:02:59,1.779,0.0,0.0
10:02:59,-117.356,0.0,0.0
10:02:59,15.438,0.0,0.0
10:02:59,-76.731,0.0,0.0
10:02:59,-57.774,0.0,0.0
10:02:59,3.622,0.0,0.0
10:02:59,-117.3,0.0,0.0
10:02:59,12.981,0.0,0.0
10:02:59,-79.781,0.0,0.0
10:02:59,-62.172,0.0,0.0
10:02:59,0.156,0.0,0.0
10:02:59,-121.615,0.0,0.0
10:02:59,10.019,0.0,0.0
10:02:59,-81.553,0.0,0.0
10:02:59,-64.676,0.0,0.0
10:02:59,-0.611,0.0,0.0
10:02:59,-122.229,0.0,0.0
10:02:59,10.381,0.0,0.0
10:02:59,-75.904,0.0,0.0
10:02:59,-55.172,0.0,0.0
10:02:59,7.306,0.0,0.0
10:02:59,-121.829,0.0,0.0
10:02:59,-0.806,0.0,0.0
10:02:59,-95.911,0.0,0.0
10:02:59,-75.312,0.0,0.0
10:02:59,-3.976,0.0,0.0
10:02:59,-123.305,0.0,0.0
10:02:59,7.96,0.0,0.0
10:02:59,-80.376,0.0,0.0
10:02:59,-66.289,0.0,0.0
10:02:59,0.382,0.0,0.0
10:02:59,-121.439,0.0,0.0
10:02:59,8.699,0.0,0.0
10:02:59,-78.823,0.0,0.0
10:02:59,-66.142,0.0,0.0
10:02:59,1.246,0.0,0.0
10:02:59,-120.629,0.0,0.0
10:02:59,9.063,0.0,0.0
10:02:59,-77.262,0.0,0.0
10:02:59,-65.677,0.0,0.0
10:02:59,2.951,0.0,0.0
10:02:59,-119.12,0.0,0.0
10:02:59,10.128,0.0,0.0
10:02:59,-74.487,0.0,0.0
10:02:59,-63.539,0.0,0.0
10:02:59,6.051,0.0,0.0
10:02:59,-116.069,0.0,0.0
10:02:59,12.702,0.0,0.0
10:02:59,-70.962,0.0,0.0
10:02:59,-61.452,0.0,0.0
10:02:59,8.48,0.0,0.0
10:02:59,-114.629,0.0,0.0
10:02:59,12.878,0.0,0.0
10:02:59,-71.105,0.0,0.0
10:02:59,-63.928,0.0,0.0
10:02:59,6.024,0.0,0.0
10:02:59,-117.999,0.0,0.0
10:02:59,9.248,0.0,0.0
10:02:59,-74.023,0.0,0.0
10:02:59,-67.876,0.0,0.0
10:02:59,3.428,0.0,0.0
10:02:59,-120.466,0.0,0.0
10:02:59,7.004,0.0,0.0
10:02:59,-74.956,0.0,0.0
10:02:59,-69.129,0.0,0.0
10:02:59,3.751,0.0,0.0
10:02:59,-120.774,0.0,0.0
10:02:59,6.996,0.0,0.0
10:02:59,-74.317,0.0,0.0
10:02:59,-69.914,0.0,0.0
10:02:59,4.334,0.0,0.0
10:02:59,-120.569,0.0,0.0
10:02:59,6.837,0.0,0.0
10:02:59,-73.566,0.0,0.0
10:02:59,-69.866,0.0,0.0
10:02:59,4.943,0.0,0.0
10:02:59,-120.928,0.0,0.0
10:02:59,6.36,0.0,0.0
10:02:59,-73.112,0.0,0.0
10:02:59,-70.802,0.0,0.0
10:02:59,5.432,0.0,0.0
10:03:00,-120.541,0.0,0.0
10:03:00,6.161,0.0,0.0
10:03:00,-72.027,0.0,0.0
10:03:00,-71.033,0.0,0.0
10:03:00,5.457,0.0,0.0
10:03:00,-120.691,0.0,0.0
10:03:00,5.149,0.0,0.0
10:03:00,-72.19,0.0,0.0
10:03:00,-72.334,0.0,0.0
10:03:00,5.151,0.0,0.0
10:03:00,-121.092,0.0,0.0
10:03:00,4.411,0.0,0.0
10:03:00,-71.773,0.0,0.0
10:03:00,-72.697,0.0,0.0
10:03:00,5.778,0.0,0.0
10:03:00,-120.778,0.0,0.0
10:03:00,4.734,0.0,0.0
10:03:00,-70.797,0.0,0.0
10:03:00,-73.146,0.0,0.0
10:03:00,6.586,0.0,0.0
10:03:00,-119.736,0.0,0.0
10:03:00,6.687,0.0,0.0
10:03:00,-67.762,0.0,0.0
10:03:00,-71.051,0.0,0.0
10:03:00,10.926,0.0,0.0
10:03:00,-116.338,0.0,0.0
10:03:00,8.691,0.0,0.0
10:03:00,-65.316,0.0,0.0
10:03:00,-70.822,0.0,0.0
10:03:00,9.283,0.0,0.0
10:03:00,-119.947,0.0,0.0
10:03:00,4.529,0.0,0.0
10:03:00,-69.316,0.0,0.0
10:03:00,-75.653,0.0,0.0
10:03:00,6.566,0.0,0.0
10:03:00,-122.289,0.0,0.0
10:03:00,2.424,0.0,0.0
10:03:00,-69.841,0.0,0.0
10:03:00,-76.726,0.0,0.0
10:03:00,7.706,0.0,0.0
10:03:00,-117.111,0.0,0.0
10:03:00,12.944,0.0,0.0
10:03:00,-61.347,0.0,0.0
10:03:00,-77.709,0.0,0.0
10:03:00,-3.959,0.0,0.0
10:03:00,-139.266,0.0,0.0
10:03:00,-8.049,0.0,0.0
10:03:00,-72.687,0.0,0.0
10:03:00,-79.184,0.0,0.0
10:03:00,7.439,0.0,0.0
10:03:00,-121.751,0.0,0.0
10:03:00,2.119,0.0,0.0
10:03:00,-67.363,0.0,0.0
10:03:00,-77.52,0.0,0.0
10:03:00,7.946,0.0,0.0
10:03:00,-121.431,0.0,0.0
10:03:00,1.575,0.0,0.0
10:03:00,-66.941,0.0,0.0
10:03:00,-78.057,0.0,0.0
10:03:00,8.198,0.0,0.0
10:03:00,-121.052,0.0,0.0
10:03:00,1.646,0.0,0.0
10:03:00,-65.439,0.0,0.0
10:03:00,-77.332,0.0,0.0
10:03:00,9.667,0.0,0.0
10:03:00,-118.614,0.0,0.0
10:03:00,3.528,0.0,0.0
10:03:00,-62.733,0.0,0.0
10:03:00,-75.353,0.0,0.0
10:03:00,12.225,0.0,0.0
10:03:00,-116.486,0.0,0.0
10:03:00,4.978,0.0,0.0
10:03:00,-60.786,0.0,0.0
10:03:00,-74.876,0.0,0.0
10:03:00,12.359,0.0,0.0
10:03:00,-117.159,0.0,0.0
10:03:00,2.768,0.0,0.0
10:03:00,-62.864,0.0,0.0
10:03:00,-78.462,0.0,0.0
10:03:00,8.901,0.0,0.0
10:03:00,-120.769,0.0,0.0
10:03:00,-1.063,0.0,0.0
10:03:00,-65.381,0.0,0.0
10:03:00,-81.229,0.0,0.0
10:03:00,7.557,0.0,0.0
10:03:00,-121.889,0.0,0.0
10:03:00,-2.296,0.0,0.0
10:03:00,-65.346,0.0,0.0
10:03:00,-81.863,0.0,0.0
10:03:00,8.183,0.0,0.0
10:03:00,-120.974,0.0,0.0
10:03:00,-1.786,0.0,0.0
10:03:00,-64.091,0.0,0.0
10:03:00,-81.54,0.0,0.0
10:03:00,8.761,0.0,0.0
10:03:00,-120.619,0.0,0.0
10:03:00,-1.972,0.0,0.0
10:03:00,-63.221,0.0,0.0
10:03:00,-81.872,0.0,0.0
10:03:00,8.993,0.0,0.0
10:03:00,-120.537,0.0,0.0
10:03:00,-2.455,0.0,0.0
10:03:00,-62.929,0.0,0.0
10:03:00,-82.699,0.0,0.0
10:03:00,9.014,0.0,0.0
10:03:00,-120.228,0.0,0.0
10:03:00,-2.845,0.0,0.0
10:03:00,-62.272,0.0,0.0
10:03:00,-83.209,0.0,0.0
10:03:00,9.093,0.0,0.0
10:03:00,-120.15,0.0,0.0
10:03:00,-3.68,0.0,0.0
10:03:00,-62.144,0.0,0.0
10:03:00,-84.142,0.0,0.0
10:03:00,8.429,0.0,0.0
10:03:00,-120.594,0.0,0.0
10:03:00,-4.401,0.0,0.0
10:03:00,-61.782,0.0,0.0
10:03:00,-84.465,0.0,0.0
10:03:00,8.599,0.0,0.0
10:03:00,-120.546,0.0,0.0
10:03:00,-4.844,0.0,0.0
10:03:00,-61.091,0.0,0.0
10:03:00,-85.109,0.0,0.0
10:03:00,8.962,0.0,0.0
10:03:01,-120.369,0.0,0.0
10:03:01,-5.377,0.0,0.0
10:03:01,-60.752,0.0,0.0
10:03:01,-85.413,0.0,0.0
10:03:01,9.363,0.0,0.0
10:03:01,-119.762,0.0,0.0
10:03:01,-4.046,0.0,0.0
10:03:01,-57.997,0.0,0.0
10:03:01,-83.904,0.0,0.0
10:03:01,13.088,0.0,0.0
10:03:01,-116.137,0.0,0.0
10:03:01,-2.347,0.0,0.0
10:03:01,-56.407,0.0,0.0
10:03:01,-83.868,0.0,0.0
10:03:01,11.574,0.0,0.0
10:03:01,-120.036,0.0,0.0
10:03:01,-6.692,0.0,0.0
10:03:01,-60.155,0.0,0.0
10:03:01,-88.696,0.0,0.0
10:03:01,8.858,0.0,0.0
10:03:01,-121.749,0.0,0.0
10:03:01,-8.204,0.0,0.0
10:03:01,-60.002,0.0,0.0
10:03:01,-88.944,0.0,0.0
10:03:01,9.88,0.0,0.0
10:03:01,-117.53,0.0,0.0
10:03:01,2.174,0.0,0.0
10:03:01,-48.407,0.0,0.0
10:03:01,-86.611,0.0,0.0
10:03:01,0.97,0.0,0.0
10:03:01,-139.163,0.0,0.0
10:03:01,-22.226,0.0,0.0
10:03:01,-64.414,0.0,0.0
10:03:01,-91.743,0.0,0.0
10:03:01,9.872,0.0,0.0
10:03:01,-121.027,0.0,0.0
10:03:01,-7.875,0.0,0.0
10:03:01,-57.566,0.0,0.0
10:03:01,-89.297,0.0,0.0
10:03:01,12.033,0.0,0.0
10:03:01,-121.117,0.0,0.0
10:03:01,-7.268,0.0,0.0
10:03:01,-56.114,0.0,0.0
10:03:01,-89.337,0.0,0.0
10:03:01,13.902,0.0,0.0
10:03:01,-119.991,0.0,0.0
10:03:01,-5.781,0.0,0.0
10:03:01,-53.752,0.0,0.0
10:03:01,-87.999,0.0,0.0
10:03:01,16.468,0.0,0.0
10:03:01,-117.327,0.0,0.0
10:03:01,-3.447,0.0,0.0
10:03:01,-50.717,0.0,0.0
10:03:01,-85.726,0.0,0.0
10:03:01,18.8,0.0,0.0
10:03:01,-115.194,0.0,0.0
10:03:01,-2.159,0.0,0.0
10:03:01,-49.002,0.0,0.0
10:03:01,-85.412,0.0,0.0
10:03:01,19.047,0.0,0.0
10:03:01,-115.706,0.0,0.0
10:03:01,-4.223,0.0,0.0
10:03:01,-50.832,0.0,0.0
10:03:01,-89.024,0.0,0.0
10:03:01,15.697,0.0,0.0
10:03:01,-119.071,0.0,0.0
10:03:01,-7.964,0.0,0.0
10:03:01,-52.97,0.0,0.0
10:03:01,-91.296,0.0,0.0
10:03:01,14.564,0.0,0.0
10:03:01,-119.65,0.0,0.0
10:03:01,-8.801,0.0,0.0
10:03:01,-52.9,0.0,0.0
10:03:01,-92.254,0.0,0.0
10:03:01,14.12,0.0,0.0
10:03:01,-119.773,0.0,0.0
10:03:01,-9.302,0.0,0.0
10:03:01,-52.601,0.0,0.0
10:03:01,-92.538,0.0,0.0
10:03:01,14.332,0.0,0.0
10:03:01,-119.316,0.0,0.0
10:03:01,-9.593,0.0,0.0
10:03:01,-51.767,0.0,0.0
10:03:01,-92.605,0.0,0.0
10:03:01,14.68,0.0,0.0
10:03:01,-118.767,0.0,0.0
10:03:01,-9.861,0.0,0.0
10:03:01,-51.109,0.0,0.0
10:03:01,-93.007,0.0,0.0
10:03:01,14.482,0.0,0.0
10:03:01,-118.695,0.0,0.0
10:03:01,-10.648,0.0,0.0
10:03:01,-50.743,0.0,0.0
10:03:01,-93.322,0.0,0.0
10:03:01,14.302,0.0,0.0
10:03:01,-118.619,0.0,0.0
10:03:01,-11.357,0.0,0.0
10:03:01,-50.284,0.0,0.0
10:03:01,-93.996,0.0,0.0
10:03:01,14.187,0.0,0.0
10:03:01,-118.309,0.0,0.0
10:03:01,-11.929,0.0,0.0
10:03:01,-50.206,0.0,0.0
10:03:01,-94.646,0.0,0.0
10:03:01,14.03,0.0,0.0
10:03:01,-118.608,0.0,0.0
10:03:01,-12.846,0.0,0.0
10:03:01,-49.965,0.0,0.0
10:03:01,-95.311,0.0,0.0
10:03:01,13.669,0.0,0.0
10:03:01,-118.667,0.0,0.0
10:03:01,-13.621,0.0,0.0
10:03:01,-49.87,0.0,0.0
10:03:01,-95.919,0.0,0.0
10:03:01,14.091,0.0,0.0
10:03:01,-118.211,0.0,0.0
10:03:01,-13.636,0.0,0.0
10:03:01,-48.192,0.0,0.0
10:03:01,-94.525,0.0,0.0
10:03:01,16.811,0.0,0.0
10:03:01,-115.309,0.0,0.0
10:03:01,-10.591,0.0,0.0
10:03:01,-44.066,0.0,0.0
10:03:01,-92.779,0.0,0.0
10:03:01,17.609,0.0,0.0
10:03:01,-114.799,0.0,0.0
10:03:02,-12.892,0.0,0.0
10:03:02,-47.064,0.0,0.0
10:03:02,-96.935,0.0,0.0
10:03:02,13.616,0.0,0.0
10:03:02,-118.535,0.0,0.0
10:03:02,-16.699,0.0,0.0
10:03:02,-49.003,0.0,0.0
10:03:02,-98.867,0.0,0.0
10:03:02,12.61,0.0,0.0
10:03:02,-119.055,0.0,0.0
10:03:02,-16.956,0.0,0.0
10:03:02,-44.714,0.0,0.0
10:03:02,-89.047,0.0,0.0
10:03:02,24.073,0.0,0.0
10:03:02,-114.975,0.0,0.0
10:03:02,-25.932,0.0,0.0
10:03:02,-65.426,0.0,0.0
10:03:02,-113.352,0.0,0.0
10:03:02,7.088,0.0,0.0
10:03:02,-119.812,0.0,0.0
10:03:02,-18.078,0.0,0.0
10:03:02,-46.432,0.0,0.0
10:03:02,-98.596,0.0,0.0
10:03:02,14.804,0.0,0.0
10:03:02,-116.005,0.0,0.0
10:03:02,-16.621,0.0,0.0
10:03:02,-44.435,0.0,0.0
10:03:02,-97.717,0.0,0.0
10:03:02,15.664,0.0,0.0
10:03:02,-114.884,0.0,0.0
10:03:02,-15.752,0.0,0.0
10:03:02,-42.617,0.0,0.0
10:03:02,-96.765,0.0,0.0
10:03:02,17.622,0.0,0.0
10:03:02,-112.886,0.0,0.0
10:03:02,-14.346,0.0,0.0
10:03:02,-40.131,0.0,0.0
10:03:02,-95.116,0.0,0.0
10:03:02,19.972,0.0,0.0
10:03:02,-110.307,0.0,0.0
10:03:02,-12.725,0.0,0.0
10:03:02,-37.902,0.0,0.0
10:03:02,-94.115,0.0,0.0
10:03:02,21.153,0.0,0.0
10:03:02,-109.739,0.0,0.0
10:03:02,-13.166,0.0,0.0
10:03:02,-37.641,0.0,0.0
10:03:02,-95.327,0.0,0.0
10:03:02,19.395,0.0,0.0
10:03:02,-112.002,0.0,0.0
10:03:02,-16.551,0.0,0.0
10:03:02,-40.518,0.0,0.0
10:03:02,-99.025,0.0,0.0
10:03:02,16.247,0.0,0.0
10:03:02,-114.326,0.0,0.0
10:03:02,-19.302,0.0,0.0
10:03:02,-41.847,0.0,0.0
10:03:02,-100.791,0.0,0.0
10:03:02,15.202,0.0,0.0
10:03:02,-114.599,0.0,0.0
10:03:02,-20.349,0.0,0.0
10:03:02,-41.612,0.0,0.0
10:03:02,-100.989,0.0,0.0
10:03:02,14.929,0.0,0.0
10:03:02,-114.366,0.0,0.0
10:03:02,-20.453,0.0,0.0
10:03:02,-40.462,0.0,0.0
10:03:02,-100.572,0.0,0.0
10:03:02,15.881,0.0,0.0
10:03:02,-112.507,0.0,0.0
10:03:02,-19.954,0.0,0.0
10:03:02,-39.808,0.0,0.0
10:03:02,-100.154,0.0,0.0
10:03:02,15.789,0.0,0.0
10:03:02,-111.966,0.0,0.0
10:03:02,-20.825,0.0,0.0
10:03:02,-39.461,0.0,0.0
10:03:02,-100.271,0.0,0.0
10:03:02,15.03,0.0,0.0
10:03:02,-112.074,0.0,0.0
10:03:02,-21.852,0.0,0.0
10:03:02,-39.546,0.0,0.0
10:03:02,-100.972,0.0,0.0
10:03:02,14.532,0.0,0.0
10:03:02,-112.204,0.0,0.0
10:03:02,-22.487,0.0,0.0
10:03:02,-39.239,0.0,0.0
10:03:02,-101.228,0.0,0.0
10:03:02,14.474,0.0,0.0
10:03:02,-111.654,0.0,0.0
10:03:02,-23.246,0.0,0.0
10:03:02,-39.0,0.0,0.0
10:03:02,-101.824,0.0,0.0
10:03:02,13.863,0.0,0.0
10:03:02,-111.63,0.0,0.0
10:03:02,-23.884,0.0,0.0
10:03:02,-38.827,0.0,0.0
10:03:02,-102.497,0.0,0.0
10:03:02,13.539,0.0,0.0
10:03:02,-111.626,0.0,0.0
10:03:02,-24.442,0.0,0.0
10:03:02,-38.388,0.0,0.0
10:03:02,-102.089,0.0,0.0
10:03:02,15.246,0.0,0.0
10:03:02,-109.524,0.0,0.0
10:03:02,-23.136,0.0,0.0
10:03:02,-35.035,0.0,0.0
10:03:02,-99.451,0.0,0.0
10:03:02,16.77,0.0,0.0
10:03:02,-107.981,0.0,0.0
10:03:02,-23.475,0.0,0.0
10:03:02,-36.452,0.0,0.0
10:03:02,-102.734,0.0,0.0
10:03:02,13.441,0.0,0.0
10:03:02,-111.186,0.0,0.0
10:03:02,-26.986,0.0,0.0
10:03:02,-38.566,0.0,0.0
10:03:02,-105.004,0.0,0.0
10:03:02,11.893,0.0,0.0
10:03:02,-111.667,0.0,0.0
10:03:02,-28.069,0.0,0.0
10:03:02,-37.839,0.0,0.0
10:03:02,-101.079,0.0,0.0
10:03:02,21.37,0.0,0.0
10:03:02,-102.117,0.0,0.0
10:03:03,-25.949,0.0,0.0
10:03:03,-45.411,0.0,0.0
10:03:03,-120.644,0.0,0.0
10:03:03,-0.054,0.0,0.0
10:03:03,-116.37,0.0,0.0
10:03:03,-31.094,0.0,0.0
10:03:03,-37.971,0.0,0.0
10:03:03,-105.187,0.0,0.0
10:03:03,12.432,0.0,0.0
10:03:03,-109.111,0.0,0.0
10:03:03,-28.045,0.0,0.0
10:03:03,-35.626,0.0,0.0
10:03:03,-104.12,0.0,0.0
10:03:03,13.373,0.0,0.0
10:03:03,-108.269,0.0,0.0
10:03:03,-27.609,0.0,0.0
10:03:03,-34.181,0.0,0.0
10:03:03,-103.438,0.0,0.0
10:03:03,14.323,0.0,0.0
10:03:03,-106.671,0.0,0.0
10:03:03,-26.449,0.0,0.0
10:03:03,-32.344,0.0,0.0
10:03:03,-101.944,0.0,0.0
10:03:03,16.328,0.0,0.0
10:03:03,-104.434,0.0,0.0
10:03:03,-25.131,0.0,0.0
10:03:03,-30.009,0.0,0.0
10:03:03,-100.761,0.0,0.0
10:03:03,17.518,0.0,0.0
10:03:03,-103.405,0.0,0.0
10:03:03,-25.459,0.0,0.0
10:03:03,-29.738,0.0,0.0
10:03:03,-101.808,0.0,0.0
10:03:03,16.044,0.0,0.0
10:03:03,-105.148,0.0,0.0
10:03:03,-28.458,0.0,0.0
10:03:03,-32.399,0.0,0.0
10:03:03,-105.151,0.0,0.0
10:03:03,13.447,0.0,0.0
10:03:03,-107.309,0.0,0.0
10:03:03,-31.197,0.0,0.0
10:03:03,-33.522,0.0,0.0
10:03:03,-106.55,0.0,0.0
10:03:03,12.47,0.0,0.0
10:03:03,-107.487,0.0,0.0
10:03:03,-31.392,0.0,0.0
10:03:03,-32.786,0.0,0.0
10:03:03,-106.358,0.0,0.0
10:03:03,12.784,0.0,0.0
10:03:03,-106.591,0.0,0.0
10:03:03,-31.456,0.0,0.0
10:03:03,-32.249,0.0,0.0
10:03:03,-106.5,0.0,0.0
10:03:03,12.997,0.0,0.0
10:03:03,-106.05,0.0,0.0
10:03:03,-31.792,0.0,0.0
10:03:03,-31.648,0.0,0.0
10:03:03,-105.864,0.0,0.0
10:03:03,12.871,0.0,0.0
10:03:03,-105.775,0.0,0.0
10:03:03,-31.702,0.0,0.0
10:03:03,-31.304,0.0,0.0
10:03:03,-105.496,0.0,0.0
10:03:03,12.547,0.0,0.0
10:03:03,-105.401,0.0,0.0
10:03:03,-32.061,0.0,0.0
10:03:03,-31.444,0.0,0.0
10:03:03,-105.727,0.0,0.0
10:03:03,12.029,0.0,0.0
10:03:03,-105.142,0.0,0.0
10:03:03,-32.661,0.0,0.0
10:03:03,-31.609,0.0,0.0
10:03:03,-105.359,0.0,0.0
10:03:03,11.734,0.0,0.0
10:03:03,-104.197,0.0,0.0
10:03:03,-31.645,0.0,0.0
10:03:03,-29.89,0.0,0.0
10:03:03,-103.925,0.0,0.0
10:03:03,14.404,0.0,0.0
10:03:03,-101.34,0.0,0.0
10:03:03,-30.754,0.0,0.0
10:03:03,-28.711,0.0,0.0
10:03:03,-104.144,0.0,0.0
10:03:03,11.955,0.0,0.0
10:03:03,-104.172,0.0,0.0
10:03:03,-34.284,0.0,0.0
10:03:03,-31.954,0.0,0.0
10:03:03,-107.237,0.0,0.0
10:03:03,9.968,0.0,0.0
10:03:03,-105.284,0.0,0.0
10:03:03,-35.804,0.0,0.0
10:03:03,-32.174,0.0,0.0
10:03:03,-107.861,0.0,0.0
10:03:03,10.321,0.0,0.0
10:03:03,-101.097,0.0,0.0
10:03:03,-26.723,0.0,0.0
10:03:03,-22.623,0.0,0.0
10:03:03,-105.559,0.0,0.0
10:03:03,2.756,0.0,0.0
10:03:03,-117.906,0.0,0.0
10:03:03,-46.082,0.0,0.0
10:03:03,-35.287,0.0,0.0
10:03:03,-109.359,0.0,0.0
10:03:03,9.9,0.0,0.0
10:03:03,-103.699,0.0,0.0
10:03:03,-35.73,0.0,0.0
10:03:03,-29.247,0.0,0.0
10:03:03,-106.876,0.0,0.0
10:03:03,11.394,0.0,0.0
10:03:03,-102.387,0.0,0.0
10:03:03,-34.968,0.0,0.0
10:03:03,-27.851,0.0,0.0
10:03:03,-106.326,0.0,0.0
10:03:03,12.502,0.0,0.0
10:03:03,-101.387,0.0,0.0
10:03:03,-34.47,0.0,0.0
10:03:03,-26.516,0.0,0.0
10:03:03,-105.494,0.0,0.0
10:03:03,13.478,0.0,0.0
10:03:03,-100.116,0.0,0.0
10:03:03,-33.839,0.0,0.0
10:03:03,-24.841,0.0,0.0
10:03:03,-104.453,0.0,0.0
10:03:03,14.718,0.0,0.0
10:03:03,-98.367,0.0,0.0
10:03:04,-32.866,0.0,0.0
10:03:04,-23.436,0.0,0.0
10:03:04,-103.909,0.0,0.0
10:03:04,14.737,0.0,0.0
10:03:04,-98.289,0.0,0.0
10:03:04,-34.601,0.0,0.0
10:03:04,-25.614,0.0,0.0
10:03:04,-106.8,0.0,0.0
10:03:04,11.648,0.0,0.0
10:03:04,-101.072,0.0,0.0
10:03:04,-38.062,0.0,0.0
10:03:04,-27.524,0.0,0.0
10:03:04,-108.792,0.0,0.0
10:03:04,10.468,0.0,0.0
10:03:04,-101.483,0.0,0.0
10:03:04,-38.492,0.0,0.0
10:03:04,-27.296,0.0,0.0
10:03:04,-109.004,0.0,0.0
10:03:04,10.468,0.0,0.0
10:03:04,-101.102,0.0,0.0
10:03:04,-38.952,0.0,0.0
10:03:04,-26.874,0.0,0.0
10:03:04,-109.001,0.0,0.0
10:03:04,10.489,0.0,0.0
10:03:04,-100.496,0.0,0.0
10:03:04,-39.098,0.0,0.0
10:03:04,-26.484,0.0,0.0
10:03:04,-109.831,0.0,0.0
10:03:04,10.088,0.0,0.0
10:03:04,-100.379,0.0,0.0
10:03:04,-39.724,0.0,0.0
10:03:04,-26.042,0.0,0.0
10:03:04,-109.465,0.0,0.0
10:03:04,10.232,0.0,0.0
10:03:04,-100.158,0.0,0.0
10:03:04,-40.291,0.0,0.0
10:03:04,-25.984,0.0,0.0
10:03:04,-109.884,0.0,0.0
10:03:04,10.088,0.0,0.0
10:03:04,-99.588,0.0,0.0
10:03:04,-39.402,0.0,0.0
10:03:04,-23.666,0.0,0.0
10:03:04,-108.136,0.0,0.0
10:03:04,12.759,0.0,0.0
10:03:04,-96.334,0.0,0.0
10:03:04,-37.934,0.0,0.0
10:03:04,-22.219,0.0,0.0
10:03:04,-108.388,0.0,0.0
10:03:04,10.964,0.0,0.0
10:03:04,-99.114,0.0,0.0
10:03:04,-41.711,0.0,0.0
10:03:04,-25.555,0.0,0.0
10:03:04,-111.411,0.0,0.0
10:03:04,9.004,0.0,0.0
10:03:04,-100.411,0.0,0.0
10:03:04,-43.366,0.0,0.0
10:03:04,-25.534,0.0,0.0
10:03:04,-111.698,0.0,0.0
10:03:04,9.234,0.0,0.0
10:03:04,-96.942,0.0,0.0
10:03:04,-35.059,0.0,0.0
10:03:04,-15.912,0.0,0.0
10:03:04,-107.993,0.0,0.0
10:03:04,4.543,0.0,0.0
10:03:04,-111.731,0.0,0.0
10:03:04,-53.342,0.0,0.0
10:03:04,-28.47,0.0,0.0
10:03:04,-113.476,0.0,0.0
10:03:04,9.323,0.0,0.0
10:03:04,-99.071,0.0,0.0
10:03:04,-43.384,0.0,0.0
10:03:04,-23.11,0.0,0.0
10:03:04,-111.552,0.0,0.0
10:03:04,10.174,0.0,0.0
10:03:04,-98.249,0.0,0.0
10:03:04,-43.54,0.0,0.0
10:03:04,-22.192,0.0,0.0
10:03:04,-111.151,0.0,0.0
10:03:04,10.794,0.0,0.0
10:03:04,-97.06,0.0,0.0
10:03:04,-42.568,0.0,0.0
10:03:04,-20.572,0.0,0.0
10:03:04,-109.772,0.0,0.0
10:03:04,12.284,0.0,0.0
10:03:04,-95.25,0.0,0.0
10:03:04,-41.509,0.0,0.0
10:03:04,-18.506,0.0,0.0
10:03:04,-108.244,0.0,0.0
10:03:04,14.168,0.0,0.0
10:03:04,-92.911,0.0,0.0
10:03:04,-40.374,0.0,0.0
10:03:04,-17.065,0.0,0.0
10:03:04,-108.044,0.0,0.0
10:03:04,13.822,0.0,0.0
10:03:04,-93.516,0.0,0.0
10:03:04,-42.17,0.0,0.0
10:03:04,-18.692,0.0,0.0
10:03:04,-110.583,0.0,0.0
10:03:04,10.767,0.0,0.0
10:03:04,-96.017,0.0,0.0
10:03:04,-45.229,0.0,0.0
10:03:04,-20.712,0.0,0.0
10:03:04,-112.621,0.0,0.0
10:03:04,9.537,0.0,0.0
10:03:04,-96.534,0.0,0.0
10:03:04,-46.007,0.0,0.0
10:03:04,-20.202,0.0,0.0
10:03:04,-112.404,0.0,0.0
10:03:04,9.876,0.0,0.0
10:03:04,-96.166,0.0,0.0
10:03:04,-46.222,0.0,0.0
10:03:04,-19.641,0.0,0.0
10:03:04,-112.476,0.0,0.0
10:03:04,9.616,0.0,0.0
10:03:04,-95.646,0.0,0.0
10:03:04,-46.41,0.0,0.0
10:03:04,-19.238,0.0,0.0
10:03:04,-112.959,0.0,0.0
10:03:04,9.754,0.0,0.0
10:03:04,-95.092,0.0,0.0
10:03:04,-46.888,0.0,0.0
10:03:04,-18.913,0.0,0.0
10:03:04,-113.221,0.0,0.0
10:03:04,9.343,0.0,0.0
10:03:04,-95.206,0.0,0.0
10:03:05,-47.564,0.0,0.0
10:03:05,-18.444,0.0,0.0
10:03:05,-113.044,0.0,0.0
10:03:05,10.177,0.0,0.0
10:03:05,-93.311,0.0,0.0
10:03:05,-46.217,0.0,0.0
10:03:05,-16.275,0.0,0.0
10:03:05,-110.487,0.0,0.0
10:03:05,12.685,0.0,0.0
10:03:05,-91.191,0.0,0.0
10:03:05,-45.763,0.0,0.0
10:03:05,-15.918,0.0,0.0
10:03:05,-113.131,0.0,0.0
10:03:05,9.139,0.0,0.0
10:03:05,-94.543,0.0,0.0
10:03:05,-49.884,0.0,0.0
10:03:05,-19.105,0.0,0.0
10:03:05,-115.559,0.0,0.0
10:03:05,7.702,0.0,0.0
10:03:05,-95.137,0.0,0.0
10:03:05,-50.522,0.0,0.0
10:03:05,-18.409,0.0,0.0
10:03:05,-114.398,0.0,0.0
10:03:05,12.348,0.0,0.0
10:03:05,-85.253,0.0,0.0
10:03:05,-42.722,0.0,0.0
10:03:05,-17.02,0.0,0.0
10:03:05,-123.789,0.0,0.0
10:03:05,-7.087,0.0,0.0
10:03:05,-103.656,0.0,0.0
10:03:05,-54.702,0.0,0.0
10:03:05,-18.587,0.0,0.0
10:03:05,-114.864,0.0,0.0
10:03:05,8.763,0.0,0.0
10:03:05,-92.555,0.0,0.0
10:03:05,-50.187,0.0,0.0
10:03:05,-15.775,0.0,0.0
10:03:05,-113.703,0.0,0.0
10:03:05,9.524,0.0,0.0
10:03:05,-91.492,0.0,0.0
10:03:05,-49.677,0.0,0.0
10:03:05,-14.631,0.0,0.0
10:03:05,-113.151,0.0,0.0
10:03:05,10.685,0.0,0.0
10:03:05,-89.445,0.0,0.0
10:03:05,-48.229,0.0,0.0
10:03:05,-12.379,0.0,0.0
10:03:05,-111.351,0.0,0.0
10:03:05,12.837,0.0,0.0
10:03:05,-87.109,0.0,0.0
10:03:05,-46.636,0.0,0.0
10:03:05,-9.804,0.0,0.0
10:03:05,-109.373,0.0,0.0
10:03:05,14.501,0.0,0.0
10:03:05,-85.662,0.0,0.0
10:03:05,-46.217,0.0,0.0
10:03:05,-9.274,0.0,0.0
10:03:05,-110.0,0.0,0.0
10:03:05,13.103,0.0,0.0
10:03:05,-87.004,0.0,0.0
10:03:05,-49.189,0.0,0.0
10:03:05,-11.932,0.0,0.0
10:03:05,-113.231,0.0,0.0
10:03:05,10.017,0.0,0.0
10:03:05,-89.465,0.0,0.0
10:03:05,-51.97,0.0,0.0
10:03:05,-13.274,0.0,0.0
10:03:05,-114.513,0.0,0.0
10:03:05,9.024,0.0,0.0
10:03:05,-89.81,0.0,0.0
10:03:05,-52.362,0.0,0.0
10:03:05,-12.759,0.0,0.0
10:03:05,-114.154,0.0,0.0
10:03:05,9.718,0.0,0.0
10:03:05,-88.687,0.0,0.0
10:03:05,-52.216,0.0,0.0
10:03:05,-11.944,0.0,0.0
10:03:05,-114.033,0.0,0.0
10:03:05,9.558,0.0,0.0
10:03:05,-87.956,0.0,0.0
10:03:05,-52.269,0.0,0.0
10:03:05,-11.649,0.0,0.0
10:03:05,-114.554,0.0,0.0
10:03:05,9.6,0.0,0.0
10:03:05,-88.088,0.0,0.0
10:03:05,-53.226,0.0,0.0
10:03:05,-11.816,0.0,0.0
10:03:05,-114.761,0.0,0.0
10:03:05,9.099,0.0,0.0
10:03:05,-88.014,0.0,0.0
10:03:05,-53.816,0.0,0.0
10:03:05,-11.672,0.0,0.0
10:03:05,-114.964,0.0,0.0
10:03:05,8.761,0.0,0.0
10:03:05,-87.497,0.0,0.0
10:03:05,-52.718,0.0,0.0
10:03:05,-8.912,0.0,0.0
10:03:05,-113.013,0.0,0.0
10:03:05,10.764,0.0,0.0
10:03:05,-84.371,0.0,0.0
10:03:05,-51.396,0.0,0.0
10:03:05,-8.347,0.0,0.0
10:03:05,-112.957,0.0,0.0
10:03:05,10.042,0.0,0.0
10:03:05,-86.973,0.0,0.0
10:03:05,-55.338,0.0,0.0
10:03:05,-11.344,0.0,0.0
10:03:05,-116.726,0.0,0.0
10:03:05,6.906,0.0,0.0
10:03:05,-88.466,0.0,0.0
10:03:05,-57.062,0.0,0.0
10:03:05,-11.652,0.0,0.0
10:03:05,-116.896,0.0,0.0
10:03:05,6.813,0.0,0.0
10:03:05,-86.446,0.0,0.0
10:03:05,-50.451,0.0,0.0
10:03:05,-0.519,0.0,0.0
10:03:05,-110.924,0.0,0.0
10:03:05,4.143,0.0,0.0
10:03:05,-100.794,0.0,0.0
10:03:05,-73.097,0.0,0.0
10:03:05,-18.486,0.0,0.0
10:03:05,-119.682,0.0,0.0
10:03:05,6.481,0.0,0.0
10:03:05,-86.765,0.0,0.0
10:03:06,-56.955,0.0,0.0
10:03:06,-9.036,0.0,0.0
10:03:06,-115.572,0.0,0.0
10:03:06,8.769,0.0,0.0
10:03:06,-84.691,0.0,0.0
10:03:06,-55.983,0.0,0.0
10:03:06,-7.429,0.0,0.0
10:03:06,-114.678,0.0,0.0
10:03:06,10.24,0.0,0.0
10:03:06,-83.023,0.0,0.0
10:03:06,-54.893,0.0,0.0
10:03:06,-5.316,0.0,0.0
10:03:06,-113.427,0.0,0.0
10:03:06,11.946,0.0,0.0
10:03:06,-80.691,0.0,0.0
10:03:06,-52.953,0.0,0.0
10:03:06,-2.107,0.0,0.0
10:03:06,-111.282,0.0,0.0
10:03:06,13.928,0.0,0.0
10:03:06,-79.408,0.0,0.0
10:03:06,-52.941,0.0,0.0
10:03:06,-1.559,0.0,0.0
10:03:06,-111.659,0.0,0.0
10:03:06,13.749,0.0,0.0
10:03:06,-79.524,0.0,0.0
10:03:06,-54.63,0.0,0.0
10:03:06,-3.128,0.0,0.0
10:03:06,-114.606,0.0,0.0
10:03:06,10.281,0.0,0.0
10:03:06,-82.959,0.0,0.0
10:03:06,-58.223,0.0,0.0
10:03:06,-5.359,0.0,0.0
10:03:06,-116.904,0.0,0.0
10:03:06,8.806,0.0,0.0
10:03:06,-83.143,0.0,0.0
10:03:06,-59.073,0.0,0.0
10:03:06,-5.492,0.0,0.0
10:03:06,-117.286,0.0,0.0
10:03:06,9.121,0.0,0.0
10:03:06,-82.671,0.0,0.0
10:03:06,-59.01,0.0,0.0
10:03:06,-4.259,0.0,0.0
10:03:06,-116.435,0.0,0.0
10:03:06,9.294,0.0,0.0
10:03:06,-81.552,0.0,0.0
10:03:06,-58.392,0.0,0.0
10:03:06,-3.086,0.0,0.0
10:03:06,-115.645,0.0,0.0
10:03:06,10.244,0.0,0.0
10:03:06,-80.406,0.0,0.0
10:03:06,-58.81,0.0,0.0
10:03:06,-3.091,0.0,0.0
10:03:06,-116.143,0.0,0.0
10:03:06,9.446,0.0,0.0
10:03:06,-80.639,0.0,0.0
10:03:06,-59.671,0.0,0.0
10:03:06,-3.939,0.0,0.0
10:03:06,-116.972,0.0,0.0
10:03:06,8.116,0.0,0.0
10:03:06,-81.827,0.0,0.0
10:03:06,-61.787,0.0,0.0
10:03:06,-5.229,0.0,0.0
10:03:06,-118.539,0.0,0.0
10:03:06,6.357,0.0,0.0
10:03:06,-82.636,0.0,0.0
10:03:06,-63.381,0.0,0.0
10:03:06,-6.548,0.0,0.0
10:03:06,-119.951,0.0,0.0
10:03:06,4.984,0.0,0.0
10:03:06,-82.431,0.0,0.0
10:03:06,-62.411,0.0,0.0
10:03:06,-4.353,0.0,0.0
10:03:06,-117.959,0.0,0.0
10:03:06,7.339,0.0,0.0
10:03:06,-78.859,0.0,0.0
10:03:06,-61.02,0.0,0.0
10:03:06,-3.192,0.0,0.0
10:03:06,-117.221,0.0,0.0
10:03:06,5.757,0.0,0.0
10:03:06,-81.578,0.0,0.0
10:03:06,-64.799,0.0,0.0
10:03:06,-6.714,0.0,0.0
10:03:06,-120.339,0.0,0.0
10:03:06,3.206,0.0,0.0
10:03:06,-82.534,0.0,0.0
10:03:06,-66.012,0.0,0.0
10:03:06,-6.749,0.0,0.0
10:03:06,-120.052,0.0,0.0
10:03:06,3.984,0.0,0.0
10:03:06,-78.476,0.0,0.0
10:03:06,-56.408,0.0,0.0
10:03:06,5.392,0.0,0.0
10:03:06,-114.964,0.0,0.0
10:03:06,-2.095,0.0,0.0
10:03:06,-96.979,0.0,0.0
10:03:06,-79.819,0.0,0.0
10:03:06,-11.333,0.0,0.0
10:03:06,-121.248,0.0,0.0
10:03:06,3.64,0.0,0.0
10:03:06,-80.161,0.0,0.0
10:03:06,-65.578,0.0,0.0
10:03:06,-3.734,0.0,0.0
10:03:06,-118.239,0.0,0.0
10:03:06,5.286,0.0,0.0
10:03:06,-78.733,0.0,0.0
10:03:06,-65.279,0.0,0.0
10:03:06,-2.741,0.0,0.0
10:03:06,-117.829,0.0,0.0
10:03:06,5.807,0.0,0.0
10:03:06,-77.779,0.0,0.0
10:03:06,-64.958,0.0,0.0
10:03:06,-1.357,0.0,0.0
10:03:06,-116.877,0.0,0.0
10:03:06,6.937,0.0,0.0
10:03:06,-76.084,0.0,0.0
10:03:06,-64.368,0.0,0.0
10:03:06,-0.206,0.0,0.0
10:03:06,-116.477,0.0,0.0
10:03:06,7.288,0.0,0.0
10:03:06,-74.765,0.0,0.0
10:03:06,-63.674,0.0,0.0
10:03:06,1.14,0.0,0.0
10:03:06,-115.931,0.0,0.0
10:03:06,7.069,0.0,0.0
10:03:06,-75.399,0.0,0.0
10:03:07,-65.769,0.0,0.0
10:03:07,-0.546,0.0,0.0
10:03:07,-118.274,0.0,0.0
10:03:07,4.118,0.0,0.0
10:03:07,-77.483,0.0,0.0
10:03:07,-68.437,0.0,0.0
10:03:07,-2.758,0.0,0.0
10:03:07,-120.416,0.0,0.0
10:03:07,2.113,0.0,0.0
10:03:07,-78.527,0.0,0.0
10:03:07,-69.748,0.0,0.0
10:03:07,-2.741,0.0,0.0
10:03:07,-120.378,0.0,0.0
10:03:07,2.319,0.0,0.0
10:03:07,-77.544,0.0,0.0
10:03:07,-69.689,0.0,0.0
10:03:07,-1.794,0.0,0.0
10:03:07,-119.389,0.0,0.0
10:03:07,3.225,0.0,0.0
10:03:07,-76.049,0.0,0.0
10:03:07,-68.816,0.0,0.0
10:03:07,-0.239,0.0,0.0
10:03:07,-118.684,0.0,0.0
10:03:07,4.034,0.0,0.0
10:03:07,-74.623,0.0,0.0
10:03:07,-68.468,0.0,0.0
10:03:07,1.196,0.0,0.0
10:03:07,-118.316,0.0,0.0
10:03:07,4.328,0.0,0.0
10:03:07,-74.387,0.0,0.0
10:03:07,-69.194,0.0,0.0
10:03:07,1.584,0.0,0.0
10:03:07,-118.717,0.0,0.0
10:03:07,3.863,0.0,0.0
10:03:07,-73.995,0.0,0.0
10:03:07,-70.191,0.0,0.0
10:03:07,0.944,0.0,0.0
10:03:07,-119.392,0.0,0.0
10:03:07,2.65,0.0,0.0
10:03:07,-74.619,0.0,0.0
10:03:07,-71.311,0.0,0.0
10:03:07,0.256,0.0,0.0
10:03:07,-120.206,0.0,0.0
10:03:07,1.768,0.0,0.0
10:03:07,-74.541,0.0,0.0
10:03:07,-71.871,0.0,0.0
10:03:07,0.406,0.0,0.0
10:03:07,-120.101,0.0,0.0
10:03:07,1.339,0.0,0.0
10:03:07,-74.333,0.0,0.0
10:03:07,-72.225,0.0,0.0
10:03:07,1.006,0.0,0.0
10:03:07,-118.431,0.0,0.0
10:03:07,3.202,0.0,0.0
10:03:07,-71.934,0.0,0.0
10:03:07,-69.683,0.0,0.0
10:03:07,3.942,0.0,0.0
10:03:07,-117.154,0.0,0.0
10:03:07,3.293,0.0,0.0
10:03:07,-71.737,0.0,0.0
10:03:07,-72.427,0.0,0.0
10:03:07,0.464,0.0,0.0
10:03:07,-120.791,0.0,0.0
10:03:07,-0.43,0.0,0.0
10:03:07,-74.159,0.0,0.0
10:03:07,-74.724,0.0,0.0
10:03:07,-0.324,0.0,0.0
10:03:07,-121.096,0.0,0.0
10:03:07,-0.307,0.0,0.0
10:03:07,-73.117,0.0,0.0
10:03:07,-73.856,0.0,0.0
10:03:07,4.903,0.0,0.0
10:03:07,-110.031,0.0,0.0
10:03:07,10.576,0.0,0.0
10:03:07,-69.712,0.0,0.0
10:03:07,-82.808,0.0,0.0
10:03:07,-15.104,0.0,0.0
10:03:07,-132.842,0.0,0.0
10:03:07,-4.785,0.0,0.0
10:03:07,-73.12,0.0,0.0
10:03:07,-74.368,0.0,0.0
10:03:07,3.383,0.0,0.0
10:03:07,-118.987,0.0,0.0
10:03:07,1.766,0.0,0.0
10:03:07,-69.692,0.0,0.0
10:03:07,-73.932,0.0,0.0
10:03:07,3.599,0.0,0.0
10:03:07,-119.199,0.0,0.0
10:03:07,0.345,0.0,0.0
10:03:07,-69.855,0.0,0.0
10:03:07,-74.438,0.0,0.0
10:03:07,3.698,0.0,0.0
10:03:07,-118.027,0.0,0.0
10:03:07,1.169,0.0,0.0
10:03:07,-68.184,0.0,0.0
10:03:07,-72.912,0.0,0.0
10:03:07,5.751,0.0,0.0
10:03:07,-116.117,0.0,0.0
10:03:07,3.164,0.0,0.0
10:03:07,-65.496,0.0,0.0
10:03:07,-71.251,0.0,0.0
10:03:07,7.934,0.0,0.0
10:03:07,-114.326,0.0,0.0
10:03:07,4.028,0.0,0.0
10:03:07,-64.546,0.0,0.0
10:03:07,-71.776,0.0,0.0
10:03:07,6.993,0.0,0.0
10:03:07,-116.549,0.0,0.0
10:03:07,1.105,0.0,0.0
10:03:07,-67.19,0.0,0.0
10:03:07,-75.588,0.0,0.0
10:03:07,3.948,0.0,0.0
10:03:07,-118.939,0.0,0.0
10:03:07,-1.149,0.0,0.0
10:03:07,-68.449,0.0,0.0
10:03:07,-77.259,0.0,0.0
10:03:07,3.297,0.0,0.0
10:03:07,-119.413,0.0,0.0
10:03:07,-1.311,0.0,0.0
10:03:07,-67.341,0.0,0.0
10:03:07,-76.532,0.0,0.0
10:03:07,5.463,0.0,0.0
10:03:07,-117.397,0.0,0.0
10:03:07,0.498,0.0,0.0
10:03:07,-65.32,0.0,0.0
10:03:08,-75.483,0.0,0.0
10:03:08,7.418,0.0,0.0
10:03:08,-116.462,0.0,0.0
10:03:08,1.519,0.0,0.0
10:03:08,-64.152,0.0,0.0
10:03:08,-76.095,0.0,0.0
10:03:08,7.436,0.0,0.0
10:03:08,-117.201,0.0,0.0
10:03:08,0.428,0.0,0.0
10:03:08,-64.262,0.0,0.0
10:03:08,-76.896,0.0,0.0
10:03:08,7.344,0.0,0.0
10:03:08,-117.642,0.0,0.0
10:03:08,-0.788,0.0,0.0
10:03:08,-64.75,0.0,0.0
10:03:08,-78.557,0.0,0.0
10:03:08,6.338,0.0,0.0
10:03:08,-118.958,0.0,0.0
10:03:08,-2.737,0.0,0.0
10:03:08,-66.02,0.0,0.0
10:03:08,-80.537,0.0,0.0
10:03:08,4.603,0.0,0.0
10:03:08,-120.561,0.0,0.0
10:03:08,-4.627,0.0,0.0
10:03:08,-66.847,0.0,0.0
10:03:08,-81.694,0.0,0.0
10:03:08,4.07,0.0,0.0
10:03:08,-120.85,0.0,0.0
10:03:08,-5.487,0.0,0.0
10:03:08,-66.914,0.0,0.0
10:03:08,-82.296,0.0,0.0
10:03:08,4.239,0.0,0.0
10:03:08,-119.973,0.0,0.0
10:03:08,-4.006,0.0,0.0
10:03:08,-64.342,0.0,0.0
10:03:08,-80.497,0.0,0.0
10:03:08,7.444,0.0,0.0
10:03:08,-117.042,0.0,0.0
10:03:08,-2.722,0.0,0.0
10:03:08,-62.856,0.0,0.0
10:03:08,-80.751,0.0,0.0
10:03:08,5.313,0.0,0.0
10:03:08,-119.991,0.0,0.0
10:03:08,-6.158,0.0,0.0
10:03:08,-65.869,0.0,0.0
10:03:08,-84.131,0.0,0.0
10:03:08,3.443,0.0,0.0
10:03:08,-121.251,0.0,0.0
10:03:08,-7.176,0.0,0.0
10:03:08,-65.462,0.0,0.0
10:03:08,-84.393,0.0,0.0
10:03:08,4.804,0.0,0.0
10:03:08,-116.462,0.0,0.0
10:03:08,2.343,0.0,0.0
10:03:08,-55.543,0.0,0.0
10:03:08,-81.872,0.0,0.0
10:03:08,-2.552,0.0,0.0
10:03:08,-134.106,0.0,0.0
10:03:08,-17.486,0.0,0.0
10:03:08,-68.652,0.0,0.0
10:03:08,-86.075,0.0,0.0
10:03:08,5.27,0.0,0.0
10:03:08,-119.297,0.0,0.0
10:03:08,-6.196,0.0,0.0
10:03:08,-61.908,0.0,0.0
10:03:08,-83.397,0.0,0.0
10:03:08,7.226,0.0,0.0
10:03:08,-117.906,0.0,0.0
10:03:08,-5.362,0.0,0.0
10:03:08,-60.516,0.0,0.0
10:03:08,-82.656,0.0,0.0
10:03:08,8.505,0.0,0.0
10:03:08,-116.917,0.0,0.0
10:03:08,-5.029,0.0,0.0
10:03:08,-59.176,0.0,0.0
10:03:08,-81.982,0.0,0.0
10:03:08,9.563,0.0,0.0
10:03:08,-115.796,0.0,0.0
10:03:08,-3.739,0.0,0.0
10:03:08,-57.384,0.0,0.0
10:03:08,-81.051,0.0,0.0
10:03:08,11.696,0.0,0.0
10:03:08,-114.115,0.0,0.0
10:03:08,-2.573,0.0,0.0
10:03:08,-55.604,0.0,0.0
10:03:08,-80.025,0.0,0.0
10:03:08,12.069,0.0,0.0
10:03:08,-114.531,0.0,0.0
10:03:08,-4.273,0.0,0.0
10:03:08,-57.282,0.0,0.0
10:03:08,-83.316,0.0,0.0
10:03:08,8.893,0.0,0.0
10:03:08,-117.656,0.0,0.0
10:03:08,-7.361,0.0,0.0
10:03:08,-59.343,0.0,0.0
10:03:08,-86.369,0.0,0.0
10:03:08,6.752,0.0,0.0
10:03:08,-119.175,0.0,0.0
10:03:08,-9.274,0.0,0.0
10:03:08,-60.106,0.0,0.0
10:03:08,-86.711,0.0,0.0
10:03:08,7.062,0.0,0.0
10:03:08,-118.226,0.0,0.0
10:03:08,-8.598,0.0,0.0
10:03:08,-58.61,0.0,0.0
10:03:08,-85.974,0.0,0.0
10:03:08,7.953,0.0,0.0
10:03:08,-117.924,0.0,0.0
10:03:08,-8.373,0.0,0.0
10:03:08,-57.804,0.0,0.0
10:03:08,-86.639,0.0,0.0
10:03:08,8.761,0.0,0.0
10:03:08,-117.096,0.0,0.0
10:03:08,-8.546,0.0,0.0
10:03:08,-57.092,0.0,0.0
10:03:08,-87.0,0.0,0.0
10:03:08,8.793,0.0,0.0
10:03:08,-117.436,0.0,0.0
10:03:08,-8.669,0.0,0.0
10:03:08,-56.709,0.0,0.0
10:03:08,-87.239,0.0,0.0
10:03:08,9.124,0.0,0.0
10:03:08,-117.673,0.0,0.0
10:03:08,-9.734,0.0,0.0
10:03:08,-56.756,0.0,0.0
10:03:09,-88.406,0.0,0.0
10:03:09,8.687,0.0,0.0
10:03:09,-117.139,0.0,0.0
10:03:09,-8.637,0.0,0.0
10:03:09,-55.139,0.0,0.0
10:03:09,-87.584,0.0,0.0
10:03:09,11.095,0.0,0.0
10:03:09,-115.368,0.0,0.0
10:03:09,-8.592,0.0,0.0
10:03:09,-54.776,0.0,0.0
10:03:09,-88.944,0.0,0.0
10:03:09,8.284,0.0,0.0
10:03:09,-119.008,0.0,0.0
10:03:09,-12.881,0.0,0.0
10:03:09,-57.831,0.0,0.0
10:03:09,-92.259,0.0,0.0
10:03:09,6.92,0.0,0.0
10:03:09,-119.764,0.0,0.0
10:03:09,-13.251,0.0,0.0
10:03:09,-57.115,0.0,0.0
10:03:09,-91.938,0.0,0.0
10:03:09,8.783,0.0,0.0
10:03:09,-113.592,0.0,0.0
10:03:09,-3.818,0.0,0.0
10:03:09,-49.301,0.0,0.0
10:03:09,-92.205,0.0,0.0
10:03:09,-1.158,0.0,0.0
10:03:09,-131.516,0.0,0.0
10:03:09,-21.164,0.0,0.0
10:03:09,-59.481,0.0,0.0
10:03:09,-93.519,0.0,0.0
10:03:09,8.059,0.0,0.0
10:03:09,-118.607,0.0,0.0
10:03:09,-13.6,0.0,0.0
10:03:09,-54.771,0.0,0.0
10:03:09,-91.9,0.0,0.0
10:03:09,8.994,0.0,0.0
10:03:09,-117.466,0.0,0.0
10:03:09,-13.017,0.0,0.0
10:03:09,-53.943,0.0,0.0
10:03:09,-91.965,0.0,0.0
10:03:09,10.09,0.0,0.0
10:03:09,-116.147,0.0,0.0
10:03:09,-12.056,0.0,0.0
10:03:09,-51.686,0.0,0.0
10:03:09,-90.4,0.0,0.0
10:03:09,12.296,0.0,0.0
10:03:09,-114.134,0.0,0.0
10:03:09,-10.276,0.0,0.0
10:03:09,-49.151,0.0,0.0
10:03:09,-88.537,0.0,0.0
10:03:09,14.46,0.0,0.0
10:03:09,-112.899,0.0,0.0
10:03:09,-10.063,0.0,0.0
10:03:09,-48.566,0.0,0.0
10:03:09,-89.574,0.0,0.0
10:03:09,13.138,0.0,0.0
10:03:09,-114.937,0.0,0.0
10:03:09,-13.159,0.0,0.0
10:03:09,-51.546,0.0,0.0
10:03:09,-93.779,0.0,0.0
10:03:09,9.409,0.0,0.0
10:03:09,-118.409,0.0,0.0
10:03:09,-16.727,0.0,0.0
10:03:09,-53.245,0.0,0.0
10:03:09,-95.547,0.0,0.0
10:03:09,8.271,0.0,0.0
10:03:09,-118.975,0.0,0.0
10:03:09,-16.98,0.0,0.0
10:03:09,-52.767,0.0,0.0
10:03:09,-95.842,0.0,0.0
10:03:09,8.759,0.0,0.0
10:03:09,-118.539,0.0,0.0
10:03:09,-17.015,0.0,0.0
10:03:09,-51.837,0.0,0.0
10:03:09,-96.061,0.0,0.0
10:03:09,9.186,0.0,0.0
10:03:09,-117.879,0.0,0.0
10:03:09,-17.276,0.0,0.0
10:03:09,-51.726,0.0,0.0
10:03:09,-96.839,0.0,0.0
10:03:09,8.769,0.0,0.0
10:03:09,-118.511,0.0,0.0
10:03:09,-18.307,0.0,0.0
10:03:09,-51.776,0.0,0.0
10:03:09,-97.327,0.0,0.0
10:03:09,9.299,0.0,0.0
10:03:09,-118.066,0.0,0.0
10:03:09,-18.337,0.0,0.0
10:03:09,-50.883,0.0,0.0
10:03:09,-97.042,0.0,0.0
10:03:09,10.288,0.0,0.0
10:03:09,-116.747,0.0,0.0
10:03:09,-17.144,0.0,0.0
10:03:09,-47.988,0.0,0.0
10:03:09,-94.626,0.0,0.0
10:03:09,12.056,0.0,0.0
10:03:09,-115.932,0.0,0.0
10:03:09,-17.801,0.0,0.0
10:03:09,-49.958,0.0,0.0
10:03:09,-99.024,0.0,0.0
10:03:09,8.792,0.0,0.0
10:03:09,-119.561,0.0,0.0
10:03:09,-21.461,0.0,0.0
10:03:09,-51.767,0.0,0.0
10:03:09,-101.235,0.0,0.0
10:03:09,7.387,0.0,0.0
10:03:09,-120.028,0.0,0.0
10:03:09,-21.952,0.0,0.0
10:03:09,-50.972,0.0,0.0
10:03:09,-98.627,0.0,0.0
10:03:09,15.385,0.0,0.0
10:03:09,-110.541,0.0,0.0
10:03:09,-18.106,0.0,0.0
10:03:09,-54.848,0.0,0.0
10:03:09,-113.676,0.0,0.0
10:03:09,-3.204,0.0,0.0
10:03:09,-124.652,0.0,0.0
10:03:09,-24.544,0.0,0.0
10:03:09,-51.032,0.0,0.0
10:03:09,-101.561,0.0,0.0
10:03:09,8.728,0.0,0.0
10:03:09,-117.998,0.0,0.0
10:03:09,-21.364,0.0,0.0
10:03:09,-47.986,0.0,0.0
10:03:10,-100.241,0.0,0.0
10:03:10,10.082,0.0,0.0
10:03:10,-116.994,0.0,0.0
10:03:10,-21.564,0.0,0.0
10:03:10,-47.751,0.0,0.0
10:03:10,-100.746,0.0,0.0
10:03:10,10.174,0.0,0.0
10:03:10,-116.376,0.0,0.0
10:03:10,-21.161,0.0,0.0
10:03:10,-45.782,0.0,0.0
10:03:10,-99.187,0.0,0.0
10:03:10,12.179,0.0,0.0
10:03:10,-114.097,0.0,0.0
10:03:10,-19.051,0.0,0.0
10:03:10,-43.279,0.0,0.0
10:03:10,-97.526,0.0,0.0
10:03:10,14.241,0.0,0.0
10:03:10,-112.377,0.0,0.0
10:03:10,-19.006,0.0,0.0
10:03:10,-43.033,0.0,0.0
10:03:10,-99.23,0.0,0.0
10:03:10,12.388,0.0,0.0
10:03:10,-114.787,0.0,0.0
10:03:10,-22.494,0.0,0.0
10:03:10,-45.7,0.0,0.0
10:03:10,-102.432,0.0,0.0
10:03:10,9.582,0.0,0.0
10:03:10,-117.044,0.0,0.0
10:03:10,-24.177,0.0,0.0
10:03:10,-46.084,0.0,0.0
10:03:10,-103.267,0.0,0.0
10:03:10,9.478,0.0,0.0
10:03:10,-116.602,0.0,0.0
10:03:10,-24.303,0.0,0.0
10:03:10,-45.514,0.0,0.0
10:03:10,-103.556,0.0,0.0
10:03:10,10.125,0.0,0.0
10:03:10,-116.133,0.0,0.0
10:03:10,-24.223,0.0,0.0
10:03:10,-44.424,0.0,0.0
10:03:10,-103.014,0.0,0.0
10:03:10,10.995,0.0,0.0
10:03:10,-115.555,0.0,0.0
10:03:10,-24.441,0.0,0.0
10:03:10,-43.987,0.0,0.0
10:03:10,-103.624,0.0,0.0
10:03:10,10.816,0.0,0.0
10:03:10,-116.024,0.0,0.0
10:03:10,-25.181,0.0,0.0
10:03:10,-43.676,0.0,0.0
10:03:10,-104.066,0.0,0.0
10:03:10,10.94,0.0,0.0
10:03:10,-115.466,0.0,0.0
10:03:10,-25.384,0.0,0.0
10:03:10,-43.224,0.0,0.0
10:03:10,-104.556,0.0,0.0
10:03:10,10.728,0.0,0.0
10:03:10,-115.614,0.0,0.0
10:03:10,-25.003,0.0,0.0
10:03:10,-41.273,0.0,0.0
10:03:10,-103.419,0.0,0.0
10:03:10,13.504,0.0,0.0
10:03:10,-111.517,0.0,0.0
10:03:10,-22.754,0.0,0.0
10:03:10,-39.351,0.0,0.0
10:03:10,-102.477,0.0,0.0
10:03:10,13.516,0.0,0.0
10:03:10,-114.123,0.0,0.0
10:03:10,-26.116,0.0,0.0
10:03:10,-41.975,0.0,0.0
10:03:10,-106.208,0.0,0.0
10:03:10,10.86,0.0,0.0
10:03:10,-115.532,0.0,0.0
10:03:10,-27.895,0.0,0.0
10:03:10,-41.964,0.0,0.0
10:03:10,-106.2,0.0,0.0
10:03:10,11.608,0.0,0.0
10:03:10,-112.113,0.0,0.0
10:03:10,-19.217,0.0,0.0
10:03:10,-30.208,0.0,0.0
10:03:10,-101.01,0.0,0.0
10:03:10,7.695,0.0,0.0
10:03:10,-128.519,0.0,0.0
10:03:10,-42.002,0.0,0.0
10:03:10,-46.772,0.0,0.0
10:03:10,-108.77,0.0,0.0
10:03:10,11.485,0.0,0.0
10:03:10,-113.745,0.0,0.0
10:03:10,-27.581,0.0,0.0
10:03:10,-38.991,0.0,0.0
10:03:10,-105.693,0.0,0.0
10:03:10,12.971,0.0,0.0
10:03:10,-112.631,0.0,0.0
10:03:10,-27.228,0.0,0.0
10:03:10,-37.843,0.0,0.0
10:03:10,-105.276,0.0,0.0
10:03:10,14.127,0.0,0.0
10:03:10,-111.15,0.0,0.0
10:03:10,-26.093,0.0,0.0
10:03:10,-35.32,0.0,0.0
10:03:10,-103.372,0.0,0.0
10:03:10,16.128,0.0,0.0
10:03:10,-108.334,0.0,0.0
10:03:10,-23.857,0.0,0.0
10:03:10,-32.306,0.0,0.0
10:03:10,-101.329,0.0,0.0
10:03:10,18.588,0.0,0.0
10:03:10,-106.339,0.0,0.0
10:03:10,-23.039,0.0,0.0
10:03:10,-31.301,0.0,0.0
10:03:10,-101.526,0.0,0.0
10:03:10,17.926,0.0,0.0
10:03:10,-107.651,0.0,0.0
10:03:10,-25.826,0.0,0.0
10:03:10,-33.596,0.0,0.0
10:03:10,-104.891,0.0,0.0
10:03:10,14.965,0.0,0.0
10:03:10,-110.211,0.0,0.0
10:03:10,-28.402,0.0,0.0
10:03:10,-34.759,0.0,0.0
10:03:10,-106.434,0.0,0.0
10:03:10,14.434,0.0,0.0
10:03:10,-110.404,0.0,0.0
10:03:10,-29.591,0.0,0.0
10:03:10,-35.644,0.0,0.0
10:03:11,-108.635,0.0,0.0
10:03:11,12.121,0.0,0.0
10:03:11,-112.347,0.0,0.0
10:03:11,-31.874,0.0,0.0
10:03:11,-36.111,0.0,0.0
10:03:11,-109.164,0.0,0.0
10:03:11,12.196,0.0,0.0
10:03:11,-111.505,0.0,0.0
10:03:11,-31.662,0.0,0.0
10:03:11,-35.347,0.0,0.0
10:03:11,-109.131,0.0,0.0
10:03:11,12.071,0.0,0.0
10:03:11,-111.759,0.0,0.0
10:03:11,-32.732,0.0,0.0
10:03:11,-35.913,0.0,0.0
10:03:11,-110.124,0.0,0.0
10:03:11,11.614,0.0,0.0
10:03:11,-111.554,0.0,0.0
10:03:11,-32.886,0.0,0.0
10:03:11,-34.759,0.0,0.0
10:03:11,-109.721,0.0,0.0
10:03:11,12.233,0.0,0.0
10:03:11,-111.129,0.0,0.0
10:03:11,-33.568,0.0,0.0
10:03:11,-34.918,0.0,0.0
10:03:11,-110.724,0.0,0.0
10:03:11,10.997,0.0,0.0
10:03:11,-111.626,0.0,0.0
10:03:11,-34.906,0.0,0.0
10:03:11,-35.692,0.0,0.0
10:03:11,-111.746,0.0,0.0
10:03:11,10.085,0.0,0.0
10:03:11,-111.852,0.0,0.0
10:03:11,-34.982,0.0,0.0
10:03:11,-34.13,0.0,0.0
10:03:11,-110.509,0.0,0.0
10:03:11,11.597,0.0,0.0
10:03:11,-108.864,0.0,0.0
10:03:11,-32.64,0.0,0.0
10:03:11,-31.974,0.0,0.0
10:03:11,-109.186,0.0,0.0
10:03:11,12.153,0.0,0.0
10:03:11,-109.86,0.0,0.0
10:03:11,-36.077,0.0,0.0
10:03:11,-34.918,0.0,0.0
10:03:11,-112.872,0.0,0.0
10:03:11,8.694,0.0,0.0
10:03:11,-111.866,0.0,0.0
10:03:11,-37.924,0.0,0.0
10:03:11,-35.504,0.0,0.0
10:03:11,-113.229,0.0,0.0
10:03:11,9.001,0.0,0.0
10:03:11,-110.208,0.0,0.0
10:03:11,-32.916,0.0,0.0
10:03:11,-23.562,0.0,0.0
10:03:11,-102.422,0.0,0.0
10:03:11,11.691,0.0,0.0
10:03:11,-119.426,0.0,0.0
10:03:11,-55.28,0.0,0.0
10:03:11,-46.191,0.0,0.0
10:03:11,-117.718,0.0,0.0
10:03:11,8.154,0.0,0.0
10:03:11,-109.789,0.0,0.0
10:03:11,-37.092,0.0,0.0
10:03:11,-31.872,0.0,0.0
10:03:11,-111.639,0.0,0.0
10:03:11,11.574,0.0,0.0
10:03:11,-107.517,0.0,0.0
10:03:11,-36.109,0.0,0.0
10:03:11,-30.376,0.0,0.0
10:03:11,-110.582,0.0,0.0
10:03:11,13.239,0.0,0.0
10:03:11,-105.887,0.0,0.0
10:03:11,-34.678,0.0,0.0
10:03:11,-27.58,0.0,0.0
10:03:11,-108.581,0.0,0.0
10:03:11,16.41,0.0,0.0
10:03:11,-102.726,0.0,0.0
10:03:11,-31.608,0.0,0.0
10:03:11,-23.647,0.0,0.0
10:03:11,-105.955,0.0,0.0
10:03:11,18.781,0.0,0.0
10:03:11,-101.112,0.0,0.0
10:03:11,-31.799,0.0,0.0
10:03:11,-24.196,0.0,0.0
10:03:11,-107.76,0.0,0.0
10:03:11,16.722,0.0,0.0
10:03:11,-102.642,0.0,0.0
10:03:11,-34.211,0.0,0.0
10:03:11,-25.852,0.0,0.0
10:03:11,-110.087,0.0,0.0
10:03:11,14.014,0.0,0.0
10:03:11,-105.469,0.0,0.0
10:03:11,-38.122,0.0,0.0
10:03:11,-28.866,0.0,0.0
10:03:11,-113.413,0.0,0.0
10:03:11,10.718,0.0,0.0
10:03:11,-107.586,0.0,0.0
10:03:11,-40.584,0.0,0.0
10:03:11,-30.071,0.0,0.0
10:03:11,-114.398,0.0,0.0
10:03:11,9.856,0.0,0.0
10:03:11,-106.837,0.0,0.0
10:03:11,-40.531,0.0,0.0
10:03:11,-28.912,0.0,0.0
10:03:11,-113.176,0.0,0.0
10:03:11,10.754,0.0,0.0
10:03:11,-105.182,0.0,0.0
10:03:11,-39.282,0.0,0.0
10:03:11,-27.164,0.0,0.0
10:03:11,-111.837,0.0,0.0
10:03:11,12.584,0.0,0.0
10:03:11,-103.737,0.0,0.0
10:03:11,-38.286,0.0,0.0
10:03:11,-25.737,0.0,0.0
10:03:11,-112.257,0.0,0.0
10:03:11,13.325,0.0,0.0
10:03:11,-105.182,0.0,0.0
10:03:11,-41.291,0.0,0.0
10:03:11,-29.166,0.0,0.0
10:03:11,-117.249,0.0,0.0
10:03:11,8.276,0.0,0.0
10:03:11,-109.291,0.0,0.0
10:03:11,-45.599,0.0,0.0
10:03:11,-31.509,0.0,0.0
10:03:12,-118.656,0.0,0.0
10:03:12,6.881,0.0,0.0
10:03:12,-108.726,0.0,0.0
10:03:12,-45.586,0.0,0.0
10:03:12,-30.759,0.0,0.0
10:03:12,-118.694,0.0,0.0
10:03:12,6.721,0.0,0.0
10:03:12,-108.343,0.0,0.0
10:03:12,-45.699,0.0,0.0
10:03:12,-28.979,0.0,0.0
10:03:12,-117.109,0.0,0.0
10:03:12,7.853,0.0,0.0
10:03:12,-106.816,0.0,0.0
10:03:12,-45.996,0.0,0.0
10:03:12,-28.389,0.0,0.0
10:03:12,-116.002,0.0,0.0
10:03:12,8.892,0.0,0.0
10:03:12,-104.684,0.0,0.0
10:03:12,-43.595,0.0,0.0
10:03:12,-25.283,0.0,0.0
10:03:12,-115.478,0.0,0.0
10:03:12,8.334,0.0,0.0
10:03:12,-105.635,0.0,0.0
10:03:12,-48.175,0.0,0.0
10:03:12,-29.493,0.0,0.0
10:03:12,-119.291,0.0,0.0
10:03:12,5.474,0.0,0.0
10:03:12,-106.727,0.0,0.0
10:03:12,-48.487,0.0,0.0
10:03:12,-28.369,0.0,0.0
10:03:12,-118.108,0.0,0.0
10:03:12,6.818,0.0,0.0
10:03:12,-104.901,0.0,0.0
10:03:12,-46.563,0.0,0.0
10:03:12,-21.448,0.0,0.0
10:03:12,-107.086,0.0,0.0
10:03:12,15.225,0.0,0.0
10:03:12,-105.25,0.0,0.0
10:03:12,-59.694,0.0,0.0
10:03:12,-43.989,0.0,0.0
10:03:12,-128.351,0.0,0.0
10:03:12,4.944,0.0,0.0
10:03:12,-104.764,0.0,0.0
10:03:12,-46.879,0.0,0.0
10:03:12,-23.894,0.0,0.0
10:03:12,-116.506,0.0,0.0
10:03:12,10.637,0.0,0.0
10:03:12,-101.261,0.0,0.0
10:03:12,-44.739,0.0,0.0
10:03:12,-21.658,0.0,0.0
10:03:12,-115.97,0.0,0.0
10:03:12,11.018,0.0,0.0
10:03:12,-101.407,0.0,0.0
10:03:12,-46.228,0.0,0.0
10:03:12,-21.617,0.0,0.0
10:03:12,-116.516,0.0,0.0
10:03:12,11.34,0.0,0.0
10:03:12,-100.731,0.0,0.0
10:03:12,-46.352,0.0,0.0
10:03:12,-21.144,0.0,0.0
10:03:12,-116.519,0.0,0.0
10:03:12,11.036,0.0,0.0
10:03:12,-99.835,0.0,0.0
10:03:12,-46.15,0.0,0.0
10:03:12,-19.913,0.0,0.0
10:03:12,-115.772,0.0,0.0
10:03:12,11.798,0.0,0.0
10:03:12,-98.625,0.0,0.0
10:03:12,-46.183,0.0,0.0
10:03:12,-19.569,0.0,0.0
10:03:12,-116.127,0.0,0.0
10:03:12,10.172,0.0,0.0
10:03:12,-100.039,0.0,0.0
10:03:12,-48.992,0.0,0.0
10:03:12,-21.786,0.0,0.0
10:03:12,-118.485,0.0,0.0
10:03:12,8.101,0.0,0.0
10:03:12,-100.741,0.0,0.0
10:03:12,-50.441,0.0,0.0
10:03:12,-22.186,0.0,0.0
10:03:12,-118.857,0.0,0.0
10:03:12,7.651,0.0,0.0
10:03:12,-100.68,0.0,0.0
10:03:12,-51.127,0.0,0.0
10:03:12,-22.142,0.0,0.0
10:03:12,-119.105,0.0,0.0
10:03:12,7.117,0.0,0.0
10:03:12,-100.527,0.0,0.0
10:03:12,-51.417,0.0,0.0
10:03:12,-21.283,0.0,0.0
10:03:12,-117.875,0.0,0.0
10:03:12,8.484,0.0,0.0
10:03:12,-98.387,0.0,0.0
10:03:12,-50.27,0.0,0.0
10:03:12,-20.727,0.0,0.0
10:03:12,-119.574,0.0,0.0
10:03:12,6.015,0.0,0.0
10:03:12,-99.65,0.0,0.0
10:03:12,-51.631,0.0,0.0
10:03:12,-20.567,0.0,0.0
10:03:12,-118.582,0.0,0.0
10:03:12,7.253,0.0,0.0
10:03:12,-98.404,0.0,0.0
10:03:12,-51.627,0.0,0.0
10:03:12,-19.492,0.0,0.0
10:03:12,-117.863,0.0,0.0
10:03:12,7.928,0.0,0.0
10:03:12,-97.209,0.0,0.0
10:03:12,-52.04,0.0,0.0
10:03:12,-19.378,0.0,0.0
10:03:12,-118.324,0.0,0.0
10:03:12,7.184,0.0,0.0
10:03:12,-97.343,0.0,0.0
10:03:12,-52.622,0.0,0.0
10:03:12,-19.023,0.0,0.0
10:03:12,-117.921,0.0,0.0
10:03:12,7.536,0.0,0.0
10:03:12,-96.023,0.0,0.0
10:03:12,-51.311,0.0,0.0
10:03:12,-16.505,0.0,0.0
10:03:12,-116.189,0.0,0.0
10:03:12,10.571,0.0,0.0
10:03:12,-91.994,0.0,0.0
10:03:12,-49.737,0.0,0.0
10:03:12,-14.977,0.0,0.0
10:03:13,-115.787,0.0,0.0
10:03:13,8.583,0.0,0.0
10:03:13,-95.152,0.0,0.0
10:03:13,-54.051,0.0,0.0
10:03:13,-18.675,0.0,0.0
10:03:13,-119.654,0.0,0.0
10:03:13,5.529,0.0,0.0
10:03:13,-96.699,0.0,0.0
10:03:13,-55.466,0.0,0.0
10:03:13,-18.96,0.0,0.0
10:03:13,-120.146,0.0,0.0
10:03:13,5.971,0.0,0.0
10:03:13,-91.961,0.0,0.0
10:03:13,-45.706,0.0,0.0
10:03:13,-8.223,0.0,0.0
10:03:13,-116.813,0.0,0.0
10:03:13,-2.718,0.0,0.0
10:03:13,-111.522,0.0,0.0
10:03:13,-67.835,0.0,0.0
10:03:13,-23.331,0.0,0.0
10:03:13,-121.801,0.0,0.0
10:03:13,4.909,0.0,0.0
10:03:13,-95.157,0.0,0.0
10:03:13,-56.049,0.0,0.0
10:03:13,-16.882,0.0,0.0
10:03:13,-119.142,0.0,0.0
10:03:13,6.53,0.0,0.0
10:03:13,-93.615,0.0,0.0
10:03:13,-55.702,0.0,0.0
10:03:13,-15.48,0.0,0.0
10:03:13,-118.163,0.0,0.0
10:03:13,7.524,0.0,0.0
10:03:13,-91.84,0.0,0.0
10:03:13,-54.354,0.0,0.0
10:03:13,-13.468,0.0,0.0
10:03:13,-116.577,0.0,0.0
10:03:13,8.828,0.0,0.0
10:03:13,-90.404,0.0,0.0
10:03:13,-53.9,0.0,0.0
10:03:13,-11.706,0.0,0.0
10:03:13,-115.212,0.0,0.0
10:03:13,10.278,0.0,0.0
10:03:13,-87.933,0.0,0.0
10:03:13,-52.279,0.0,0.0
10:03:13,-9.781,0.0,0.0
10:03:13,-114.271,0.0,0.0
10:03:13,10.496,0.0,0.0
10:03:13,-87.954,0.0,0.0
10:03:13,-54.104,0.0,0.0
10:03:13,-12.001,0.0,0.0
10:03:13,-117.618,0.0,0.0
10:03:13,6.89,0.0,0.0
10:03:13,-90.906,0.0,0.0
10:03:13,-57.974,0.0,0.0
10:03:13,-14.279,0.0,0.0
10:03:13,-119.669,0.0,0.0
10:03:13,5.548,0.0,0.0
10:03:13,-91.282,0.0,0.0
10:03:13,-58.856,0.0,0.0
10:03:13,-14.045,0.0,0.0
10:03:13,-119.81,0.0,0.0
10:03:13,5.078,0.0,0.0
10:03:13,-91.171,0.0,0.0
10:03:13,-59.134,0.0,0.0
10:03:13,-13.849,0.0,0.0
10:03:13,-119.991,0.0,0.0
10:03:13,4.894,0.0,0.0
10:03:13,-90.572,0.0,0.0
10:03:13,-59.778,0.0,0.0
10:03:13,-13.665,0.0,0.0
10:03:13,-119.977,0.0,0.0
10:03:13,4.68,0.0,0.0
10:03:13,-90.455,0.0,0.0
10:03:13,-60.292,0.0,0.0
10:03:13,-13.146,0.0,0.0
10:03:13,-119.761,0.0,0.0
10:03:13,4.694,0.0,0.0
10:03:13,-89.86,0.0,0.0
10:03:13,-60.439,0.0,0.0
10:03:13,-12.857,0.0,0.0
10:03:13,-119.971,0.0,0.0
10:03:13,4.219,0.0,0.0
10:03:13,-90.029,0.0,0.0
10:03:13,-61.306,0.0,0.0
10:03:13,-12.904,0.0,0.0
10:03:13,-120.587,0.0,0.0
10:03:13,4.273,0.0,0.0
10:03:13,-88.262,0.0,0.0
10:03:13,-59.877,0.0,0.0
10:03:13,-10.957,0.0,0.0
10:03:13,-118.509,0.0,0.0
10:03:13,6.985,0.0,0.0
10:03:13,-85.691,0.0,0.0
10:03:13,-59.447,0.0,0.0
10:03:13,-9.907,0.0,0.0
10:03:13,-119.545,0.0,0.0
10:03:13,3.96,0.0,0.0
10:03:13,-88.521,0.0,0.0
10:03:13,-63.499,0.0,0.0
10:03:13,-13.079,0.0,0.0
10:03:13,-122.081,0.0,0.0
10:03:13,2.022,0.0,0.0
10:03:13,-89.849,0.0,0.0
10:03:13,-64.729,0.0,0.0
10:03:13,-12.907,0.0,0.0
10:03:13,-121.984,0.0,0.0
10:03:13,3.944,0.0,0.0
10:03:13,-82.617,0.0,0.0
10:03:13,-54.596,0.0,0.0
10:03:13,-5.101,0.0,0.0
10:03:13,-123.172,0.0,0.0
10:03:13,-8.542,0.0,0.0
10:03:13,-101.352,0.0,0.0
10:03:13,-72.633,0.0,0.0
10:03:13,-15.001,0.0,0.0
10:03:13,-123.287,0.0,0.0
10:03:13,1.737,0.0,0.0
10:03:13,-87.797,0.0,0.0
10:03:13,-64.942,0.0,0.0
10:03:13,-10.962,0.0,0.0
10:03:13,-121.517,0.0,0.0
10:03:13,2.932,0.0,0.0
10:03:13,-86.039,0.0,0.0
10:03:13,-64.471,0.0,0.0
10:03:13,-9.633,0.0,0.0
10:03:14,-120.264,0.0,0.0
10:03:14,3.521,0.0,0.0
10:03:14,-84.979,0.0,0.0
10:03:14,-63.674,0.0,0.0
10:03:14,-7.959,0.0,0.0
10:03:14,-119.144,0.0,0.0
10:03:14,4.539,0.0,0.0
10:03:14,-83.259,0.0,0.0
10:03:14,-63.047,0.0,0.0
10:03:14,-6.627,0.0,0.0
10:03:14,-118.094,0.0,0.0
10:03:14,5.507,0.0,0.0
10:03:14,-81.589,0.0,0.0
10:03:14,-62.571,0.0,0.0
10:03:14,-5.397,0.0,0.0
10:03:14,-117.759,0.0,0.0
10:03:14,4.916,0.0,0.0
10:03:14,-82.209,0.0,0.0
10:03:14,-64.317,0.0,0.0
10:03:14,-7.213,0.0,0.0
10:03:14,-120.311,0.0,0.0
10:03:14,2.351,0.0,0.0
10:03:14,-84.238,0.0,0.0
10:03:14,-67.047,0.0,0.0
10:03:14,-8.791,0.0,0.0
10:03:14,-121.639,0.0,0.0
10:03:14,1.401,0.0,0.0
10:03:14,-84.349,0.0,0.0
10:03:14,-67.821,0.0,0.0
10:03:14,-8.307,0.0,0.0
10:03:14,-121.437,0.0,0.0
10:03:14,1.429,0.0,0.0
10:03:14,-83.643,0.0,0.0
10:03:14,-67.912,0.0,0.0
10:03:14,-7.949,0.0,0.0
10:03:14,-121.592,0.0,0.0
10:03:14,1.409,0.0,0.0
10:03:14,-82.822,0.0,0.0
10:03:14,-68.241,0.0,0.0
10:03:14,-7.746,0.0,0.0
10:03:14,-121.903,0.0,0.0
10:03:14,1.099,0.0,0.0
10:03:14,-83.002,0.0,0.0
10:03:14,-69.33,0.0,0.0
10:03:14,-7.216,0.0,0.0
10:03:14,-121.752,0.0,0.0
10:03:14,0.534,0.0,0.0
10:03:14,-82.837,0.0,0.0
10:03:14,-69.774,0.0,0.0
10:03:14,-7.166,0.0,0.0
10:03:14,-121.234,0.0,0.0
10:03:14,1.418,0.0,0.0
10:03:14,-81.156,0.0,0.0
10:03:14,-68.314,0.0,0.0
10:03:14,-3.853,0.0,0.0
10:03:14,-119.046,0.0,0.0
10:03:14,2.264,0.0,0.0
10:03:14,-79.857,0.0,0.0
10:03:14,-69.489,0.0,0.0
10:03:14,-6.476,0.0,0.0
10:03:14,-122.204,0.0,0.0
10:03:14,-1.242,0.0,0.0
10:03:14,-82.822,0.0,0.0
10:03:14,-72.318,0.0,0.0
10:03:14,-7.917,0.0,0.0
10:03:14,-123.794,0.0,0.0
10:03:14,-2.264,0.0,0.0
10:03:14,-82.487,0.0,0.0
10:03:14,-72.882,0.0,0.0
10:03:14,-6.359,0.0,0.0
10:03:14,-118.723,0.0,0.0
10:03:14,6.832,0.0,0.0
10:03:14,-73.762,0.0,0.0
10:03:14,-72.122,0.0,0.0
10:03:14,-15.207,0.0,0.0
10:03:14,-136.146,0.0,0.0
10:03:14,-10.967,0.0,0.0
10:03:14,-85.035,0.0,0.0
10:03:14,-74.887,0.0,0.0
10:03:14,-6.794,0.0,0.0
10:03:14,-122.774,0.0,0.0
10:03:14,-1.583,0.0,0.0
10:03:14,-79.554,0.0,0.0
10:03:14,-72.822,0.0,0.0
10:03:14,-5.147,0.0,0.0
10:03:14,-122.044,0.0,0.0
10:03:14,-1.239,0.0,0.0
10:03:14,-78.324,0.0,0.0
10:03:14,-72.131,0.0,0.0
10:03:14,-3.5,0.0,0.0
10:03:14,-121.002,0.0,0.0
10:03:14,0.073,0.0,0.0
10:03:14,-76.217,0.0,0.0
10:03:14,-71.436,0.0,0.0
10:03:14,-2.243,0.0,0.0
10:03:14,-119.727,0.0,0.0
10:03:14,0.774,0.0,0.0
10:03:14,-74.581,0.0,0.0
10:03:14,-70.665,0.0,0.0
10:03:14,-0.561,0.0,0.0
10:03:14,-118.537,0.0,0.0
10:03:14,1.469,0.0,0.0
10:03:14,-73.703,0.0,0.0
10:03:14,-71.101,0.0,0.0
10:03:14,-0.806,0.0,0.0
10:03:14,-119.622,0.0,0.0
10:03:14,-0.627,0.0,0.0
10:03:14,-75.667,0.0,0.0
10:03:14,-74.519,0.0,0.0
10:03:14,-3.506,0.0,0.0
10:03:14,-121.947,0.0,0.0
10:03:14,-2.948,0.0,0.0
10:03:14,-77.089,0.0,0.0
10:03:14,-76.187,0.0,0.0
10:03:14,-3.948,0.0,0.0
10:03:14,-122.534,0.0,0.0
10:03:14,-3.277,0.0,0.0
10:03:14,-76.446,0.0,0.0
10:03:14,-76.381,0.0,0.0
10:03:14,-3.574,0.0,0.0
10:03:14,-122.479,0.0,0.0
10:03:14,-3.571,0.0,0.0
10:03:14,-75.712,0.0,0.0
10:03:14,-76.699,0.0,0.0
10:03:14,-3.195,0.0,0.0
10:03:15,-122.387,0.0,0.0
10:03:15,-3.666,0.0,0.0
10:03:15,-75.144,0.0,0.0
10:03:15,-77.307,0.0,0.0
10:03:15,-2.939,0.0,0.0
10:03:15,-122.262,0.0,0.0
10:03:15,-3.887,0.0,0.0
10:03:15,-74.754,0.0,0.0
10:03:15,-77.687,0.0,0.0
10:03:15,-2.443,0.0,0.0
10:03:15,-122.486,0.0,0.0
10:03:15,-4.286,0.0,0.0
10:03:15,-74.286,0.0,0.0
10:03:15,-78.398,0.0,0.0
10:03:15,-2.163,0.0,0.0
10:03:15,-121.774,0.0,0.0
10:03:15,-3.253,0.0,0.0
10:03:15,-72.288,0.0,0.0
10:03:15,-77.158,0.0,0.0
10:03:15,0.664,0.0,0.0
10:03:15,-119.112,0.0,0.0
10:03:15,-1.988,0.0,0.0
10:03:15,-70.688,0.0,0.0
10:03:15,-77.38,0.0,0.0
10:03:15,-0.801,0.0,0.0
10:03:15,-122.616,0.0,0.0
10:03:15,-6.184,0.0,0.0
10:03:15,-74.256,0.0,0.0
10:03:15,-81.331,0.0,0.0
10:03:15,-3.014,0.0,0.0
10:03:15,-124.146,0.0,0.0
10:03:15,-7.441,0.0,0.0
10:03:15,-74.136,0.0,0.0
10:03:15,-82.077,0.0,0.0
10:03:15,-1.894,0.0,0.0
10:03:15,-119.551,0.0,0.0
10:03:15,2.215,0.0,0.0
10:03:15,-64.464,0.0,0.0
10:03:15,-80.039,0.0,0.0
10:03:15,-9.699,0.0,0.0
10:03:15,-138.58,0.0,0.0
10:03:15,-18.511,0.0,0.0
10:03:15,-77.305,0.0,0.0
10:03:15,-83.855,0.0,0.0
10:03:15,-1.497,0.0,0.0
10:03:15,-122.792,0.0,0.0
10:03:15,-6.986,0.0,0.0
10:03:15,-71.091,0.0,0.0
10:03:15,-81.834,0.0,0.0
10:03:15,-0.102,0.0,0.0
10:03:15,-121.696,0.0,0.0
10:03:15,-6.249,0.0,0.0
10:03:15,-69.628,0.0,0.0
10:03:15,-81.22,0.0,0.0
10:03:15,1.679,0.0,0.0
10:03:15,-120.114,0.0,0.0
10:03:15,-5.226,0.0,0.0
10:03:15,-67.691,0.0,0.0
10:03:15,-79.882,0.0,0.0
10:03:15,3.608,0.0,0.0
10:03:15,-118.532,0.0,0.0
10:03:15,-3.356,0.0,0.0
10:03:15,-64.631,0.0,0.0
10:03:15,-78.431,0.0,0.0
10:03:15,5.861,0.0,0.0
10:03:15,-116.949,0.0,0.0
10:03:15,-2.527,0.0,0.0
10:03:15,-63.822,0.0,0.0
10:03:15,-78.775,0.0,0.0
10:03:15,5.867,0.0,0.0
10:03:15,-118.092,0.0,0.0
10:03:15,-4.695,0.0,0.0
10:03:15,-65.466,0.0,0.0
10:03:15,-82.31,0.0,0.0
10:03:15,2.693,0.0,0.0
10:03:15,-121.209,0.0,0.0
10:03:15,-7.945,0.0,0.0
10:03:15,-67.492,0.0,0.0
10:03:15,-84.614,0.0,0.0
10:03:15,1.897,0.0,0.0
10:03:15,-121.753,0.0,0.0
10:03:15,-8.706,0.0,0.0
10:03:15,-66.785,0.0,0.0
10:03:15,-84.766,0.0,0.0
10:03:15,2.371,0.0,0.0
10:03:15,-121.117,0.0,0.0
10:03:15,-8.446,0.0,0.0
10:03:15,-65.894,0.0,0.0
10:03:15,-85.056,0.0,0.0
10:03:15,2.77,0.0,0.0
10:03:15,-121.014,0.0,0.0
10:03:15,-8.646,0.0,0.0
10:03:15,-65.237,0.0,0.0
10:03:15,-85.517,0.0,0.0
10:03:15,2.998,0.0,0.0
10:03:15,-121.041,0.0,0.0
10:03:15,-9.214,0.0,0.0
10:03:15,-64.934,0.0,0.0
10:03:15,-86.009,0.0,0.0
10:03:15,3.183,0.0,0.0
10:03:15,-121.442,0.0,0.0
10:03:15,-10.107,0.0,0.0
10:03:15,-64.886,0.0,0.0
10:03:15,-87.176,0.0,0.0
10:03:15,2.874,0.0,0.0
10:03:15,-121.733,0.0,0.0
10:03:15,-10.821,0.0,0.0
10:03:15,-64.541,0.0,0.0
10:03:15,-87.642,0.0,0.0
10:03:15,2.764,0.0,0.0
10:03:15,-121.707,0.0,0.0
10:03:15,-10.177,0.0,0.0
10:03:15,-62.399,0.0,0.0
10:03:15,-86.325,0.0,0.0
10:03:15,5.666,0.0,0.0
10:03:15,-117.997,0.0,0.0
10:03:15,-8.221,0.0,0.0
10:03:15,-60.684,0.0,0.0
10:03:15,-86.124,0.0,0.0
10:03:15,5.133,0.0,0.0
10:03:15,-121.157,0.0,0.0
10:03:15,-12.177,0.0,0.0
10:03:15,-63.781,0.0,0.0
10:03:15,-90.441,0.0,0.0
10:03:15,2.356,0.0,0.0
10:03:16,-122.789,0.0,0.0
10:03:16,-13.032,0.0,0.0
10:03:16,-63.431,0.0,0.0
10:03:16,-91.063,0.0,0.0
10:03:16,3.402,0.0,0.0
10:03:16,-120.402,0.0,0.0
10:03:16,-5.455,0.0,0.0
10:03:16,-50.934,0.0,0.0
10:03:16,-83.895,0.0,0.0
10:03:16,2.035,0.0,0.0
10:03:16,-135.673,0.0,0.0
10:03:16,-29.122,0.0,0.0
10:03:16,-70.213,0.0,0.0
10:03:16,-94.885,0.0,0.0
10:03:16,3.476,0.0,0.0
10:03:16,-122.421,0.0,0.0
10:03:16,-12.906,0.0,0.0
10:03:16,-60.696,0.0,0.0
10:03:16,-91.441,0.0,0.0
10:03:16,5.601,0.0,0.0
10:03:16,-121.378,0.0,0.0
10:03:16,-12.749,0.0,0.0
10:03:16,-59.547,0.0,0.0
10:03:16,-91.254,0.0,0.0
10:03:16,6.576,0.0,0.0
10:03:16,-120.126,0.0,0.0
10:03:16,-11.922,0.0,0.0
10:03:16,-57.68,0.0,0.0
10:03:16,-90.129,0.0,0.0
10:03:16,8.544,0.0,0.0
10:03:16,-117.946,0.0,0.0
10:03:16,-10.409,0.0,0.0
10:03:16,-55.118,0.0,0.0
10:03:16,-88.678,0.0,0.0
10:03:16,10.408,0.0,0.0
10:03:16,-116.466,0.0,0.0
10:03:16,-9.467,0.0,0.0
10:03:16,-53.365,0.0,0.0
10:03:16,-88.559,0.0,0.0
10:03:16,10.376,0.0,0.0
10:03:16,-116.783,0.0,0.0
10:03:16,-11.289,0.0,0.0
10:03:16,-55.326,0.0,0.0
10:03:16,-92.006,0.0,0.0
10:03:16,7.201,0.0,0.0
10:03:16,-120.24,0.0,0.0
10:03:16,-15.476,0.0,0.0
10:03:16,-58.118,0.0,0.0
10:03:16,-95.193,0.0,0.0
10:03:16,4.956,0.0,0.0
10:03:16,-121.846,0.0,0.0
10:03:16,-17.061,0.0,0.0
10:03:16,-58.025,0.0,0.0
10:03:16,-95.438,0.0,0.0
10:03:16,5.526,0.0,0.0
10:03:16,-120.937,0.0,0.0
10:03:16,-16.988,0.0,0.0
10:03:16,-56.981,0.0,0.0
10:03:16,-95.338,0.0,0.0
10:03:16,6.054,0.0,0.0
10:03:16,-120.296,0.0,0.0
10:03:16,-16.948,0.0,0.0
10:03:16,-56.033,0.0,0.0
10:03:16,-95.524,0.0,0.0
10:03:16,6.635,0.0,0.0
10:03:16,-119.88,0.0,0.0
10:03:16,-17.389,0.0,0.0
10:03:16,-55.719,0.0,0.0
10:03:16,-96.554,0.0,0.0
10:03:16,6.277,0.0,0.0
10:03:16,-120.357,0.0,0.0
10:03:16,-18.321,0.0,0.0
10:03:16,-55.363,0.0,0.0
10:03:16,-96.967,0.0,0.0
10:03:16,6.335,0.0,0.0
10:03:16,-120.302,0.0,0.0
10:03:16,-18.742,0.0,0.0
10:03:16,-55.006,0.0,0.0
10:03:16,-97.559,0.0,0.0
10:03:16,6.519,0.0,0.0
10:03:16,-120.597,0.0,0.0
10:03:16,-19.331,0.0,0.0
10:03:16,-54.769,0.0,0.0
10:03:16,-98.694,0.0,0.0
10:03:16,6.396,0.0,0.0
10:03:16,-120.637,0.0,0.0
10:03:16,-20.084,0.0,0.0
10:03:16,-54.431,0.0,0.0
10:03:16,-99.279,0.0,0.0
10:03:16,6.324,0.0,0.0
10:03:16,-120.286,0.0,0.0
10:03:16,-19.488,0.0,0.0
10:03:16,-51.841,0.0,0.0
10:03:16,-97.605,0.0,0.0
10:03:16,9.409,0.0,0.0
10:03:16,-116.492,0.0,0.0
10:03:16,-17.584,0.0,0.0
10:03:16,-50.342,0.0,0.0
10:03:16,-97.694,0.0,0.0
10:03:16,8.045,0.0,0.0
10:03:16,-119.902,0.0,0.0
10:03:16,-21.812,0.0,0.0
10:03:16,-53.719,0.0,0.0
10:03:16,-101.845,0.0,0.0
10:03:16,4.913,0.0,0.0
10:03:16,-121.573,0.0,0.0
10:03:16,-23.779,0.0,0.0
10:03:16,-54.36,0.0,0.0
10:03:16,-102.867,0.0,0.0
10:03:16,5.137,0.0,0.0
10:03:16,-118.872,0.0,0.0
10:03:16,-15.31,0.0,0.0
10:03:16,-41.868,0.0,0.0
10:03:16,-97.18,0.0,0.0
10:03:16,0.189,0.0,0.0
10:03:16,-137.046,0.0,0.0
10:03:16,-40.495,0.0,0.0
10:03:16,-60.822,0.0,0.0
10:03:16,-105.931,0.0,0.0
10:03:16,4.654,0.0,0.0
10:03:16,-120.559,0.0,0.0
10:03:16,-24.105,0.0,0.0
10:03:16,-51.037,0.0,0.0
10:03:16,-101.949,0.0,0.0
10:03:16,7.043,0.0,0.0
10:03:17,-118.671,0.0,0.0
10:03:17,-23.46,0.0,0.0
10:03:17,-49.652,0.0,0.0
10:03:17,-101.453,0.0,0.0
10:03:17,8.015,0.0,0.0
10:03:17,-117.523,0.0,0.0
10:03:17,-22.287,0.0,0.0
10:03:17,-47.166,0.0,0.0
10:03:17,-99.686,0.0,0.0
10:03:17,10.768,0.0,0.0
10:03:17,-114.786,0.0,0.0
10:03:17,-20.562,0.0,0.0
10:03:17,-44.591,0.0,0.0
10:03:17,-98.239,0.0,0.0
10:03:17,12.546,0.0,0.0
10:03:17,-113.068,0.0,0.0
10:03:17,-19.386,0.0,0.0
10:03:17,-42.582,0.0,0.0
10:03:17,-97.794,0.0,0.0
10:03:17,12.804,0.0,0.0
10:03:17,-113.303,0.0,0.0
10:03:17,-21.26,0.0,0.0
10:03:17,-44.4,0.0,0.0
10:03:17,-101.181,0.0,0.0
10:03:17,9.637,0.0,0.0
10:03:17,-116.661,0.0,0.0
10:03:17,-25.286,0.0,0.0
10:03:17,-47.055,0.0,0.0
10:03:17,-104.2,0.0,0.0
10:03:17,7.604,0.0,0.0
10:03:17,-117.762,0.0,0.0
10:03:17,-26.386,0.0,0.0
10:03:17,-46.781,0.0,0.0
10:03:17,-104.586,0.0,0.0
10:03:17,7.904,0.0,0.0
10:03:17,-116.966,0.0,0.0
10:03:17,-26.477,0.0,0.0
10:03:17,-45.928,0.0,0.0
10:03:17,-104.555,0.0,0.0
10:03:17,8.349,0.0,0.0
10:03:17,-116.389,0.0,0.0
10:03:17,-26.555,0.0,0.0
10:03:17,-45.236,0.0,0.0
10:03:17,-104.857,0.0,0.0
10:03:17,8.529,0.0,0.0
10:03:17,-116.329,0.0,0.0
10:03:17,-27.294,0.0,0.0
10:03:17,-44.721,0.0,0.0
10:03:17,-105.107,0.0,0.0
10:03:17,8.62,0.0,0.0
10:03:17,-116.126,0.0,0.0
10:03:17,-27.804,0.0,0.0
10:03:17,-44.336,0.0,0.0
10:03:17,-105.742,0.0,0.0
10:03:17,8.484,0.0,0.0
10:03:17,-116.156,0.0,0.0
10:03:17,-28.511,0.0,0.0
10:03:17,-44.196,0.0,0.0
10:03:17,-106.506,0.0,0.0
10:03:17,8.442,0.0,0.0
10:03:17,-115.966,0.0,0.0
10:03:17,-29.234,0.0,0.0
10:03:17,-44.026,0.0,0.0
10:03:17,-107.46,0.0,0.0
10:03:17,8.253,0.0,0.0
10:03:17,-115.897,0.0,0.0
10:03:17,-29.774,0.0,0.0
10:03:17,-43.482,0.0,0.0
10:03:17,-107.747,0.0,0.0
10:03:17,8.361,0.0,0.0
10:03:17,-115.634,0.0,0.0
10:03:17,-30.369,0.0,0.0
10:03:17,-42.95,0.0,0.0
10:03:17,-108.037,0.0,0.0
10:03:17,8.471,0.0,0.0
10:03:17,-115.102,0.0,0.0
10:03:17,-29.966,0.0,0.0
10:03:17,-40.601,0.0,0.0
10:03:17,-106.136,0.0,0.0
10:03:17,11.089,0.0,0.0
10:03:17,-111.257,0.0,0.0
10:03:17,-27.324,0.0,0.0
10:03:17,-38.739,0.0,0.0
10:03:17,-106.231,0.0,0.0
10:03:17,10.282,0.0,0.0
10:03:17,-114.019,0.0,0.0
10:03:17,-31.579,0.0,0.0
10:03:17,-41.751,0.0,0.0
10:03:17,-109.829,0.0,0.0
10:03:17,7.552,0.0,0.0
10:03:17,-115.736,0.0,0.0
10:03:17,-33.491,0.0,0.0
10:03:17,-42.076,0.0,0.0
10:03:17,-110.588,0.0,0.0
10:03:17,7.494,0.0,0.0
10:03:17,-113.801,0.0,0.0
10:03:17,-27.342,0.0,0.0
10:03:17,-29.701,0.0,0.0
10:03:17,-102.082,0.0,0.0
10:03:17,6.971,0.0,0.0
10:03:17,-127.528,0.0,0.0
10:03:17,-52.001,0.0,0.0
10:03:17,-51.262,0.0,0.0
10:03:17,-114.665,0.0,0.0
10:03:17,6.962,0.0,0.0
10:03:17,-114.123,0.0,0.0
10:03:17,-33.497,0.0,0.0
10:03:17,-38.688,0.0,0.0
10:03:17,-109.441,0.0,0.0
10:03:17,9.599,0.0,0.0
10:03:17,-112.14,0.0,0.0
10:03:17,-32.756,0.0,0.0
10:03:17,-37.214,0.0,0.0
10:03:17,-108.452,0.0,0.0
10:03:17,11.144,0.0,0.0
10:03:17,-110.476,0.0,0.0
10:03:17,-31.762,0.0,0.0
10:03:17,-35.04,0.0,0.0
10:03:17,-107.426,0.0,0.0
10:03:17,12.552,0.0,0.0
10:03:17,-108.654,0.0,0.0
10:03:17,-30.472,0.0,0.0
10:03:17,-32.777,0.0,0.0
10:03:17,-105.537,0.0,0.0
10:03:17,14.819,0.0,0.0
10:03:18,-106.389,0.0,0.0
10:03:18,-29.083,0.0,0.0
10:03:18,-30.89,0.0,0.0
10:03:18,-104.884,0.0,0.0
10:03:18,15.19,0.0,0.0
10:03:18,-106.356,0.0,0.0
10:03:18,-30.898,0.0,0.0
10:03:18,-32.395,0.0,0.0
10:03:18,-107.929,0.0,0.0
10:03:18,11.841,0.0,0.0
10:03:18,-109.633,0.0,0.0
10:03:18,-34.533,0.0,0.0
10:03:18,-34.881,0.0,0.0
10:03:18,-110.852,0.0,0.0
10:03:18,9.571,0.0,0.0
10:03:18,-110.711,0.0,0.0
10:03:18,-36.034,0.0,0.0
10:03:18,-35.14,0.0,0.0
10:03:18,-111.573,0.0,0.0
10:03:18,9.242,0.0,0.0
10:03:18,-110.647,0.0,0.0
10:03:18,-36.679,0.0,0.0
10:03:18,-34.649,0.0,0.0
10:03:18,-111.801,0.0,0.0
10:03:18,9.339,0.0,0.0
10:03:18,-109.934,0.0,0.0
10:03:18,-36.575,0.0,0.0
10:03:18,-34.026,0.0,0.0
10:03:18,-111.699,0.0,0.0
10:03:18,9.149,0.0,0.0
10:03:18,-109.696,0.0,0.0
10:03:18,-37.084,0.0,0.0
10:03:18,-33.568,0.0,0.0
10:03:18,-111.924,0.0,0.0
10:03:18,9.444,0.0,0.0
10:03:18,-109.498,0.0,0.0
10:03:18,-37.617,0.0,0.0
10:03:18,-33.059,0.0,0.0
10:03:18,-111.991,0.0,0.0
10:03:18,9.328,0.0,0.0
10:03:18,-109.241,0.0,0.0
10:03:18,-38.609,0.0,0.0
10:03:18,-33.077,0.0,0.0
10:03:18,-112.941,0.0,0.0
10:03:18,8.991,0.0,0.0
10:03:18,-109.254,0.0,0.0
10:03:18,-39.184,0.0,0.0
10:03:18,-32.993,0.0,0.0
10:03:18,-113.636,0.0,0.0
10:03:18,8.681,0.0,0.0
10:03:18,-108.974,0.0,0.0
10:03:18,-39.536,0.0,0.0
10:03:18,-32.605,0.0,0.0
10:03:18,-113.464,0.0,0.0
10:03:18,8.774,0.0,0.0
10:03:18,-108.618,0.0,0.0
10:03:18,-39.833,0.0,0.0
10:03:18,-32.012,0.0,0.0
10:03:18,-113.539,0.0,0.0
10:03:18,8.853,0.0,0.0
10:03:18,-107.504,0.0,0.0
10:03:18,-38.838,0.0,0.0
10:03:18,-30.021,0.0,0.0
10:03:18,-112.015,0.0,0.0
10:03:18,11.906,0.0,0.0
10:03:18,-104.57,0.0,0.0
10:03:18,-38.003,0.0,0.0
10:03:18,-28.754,0.0,0.0
10:03:18,-112.517,0.0,0.0
10:03:18,9.862,0.0,0.0
10:03:18,-107.018,0.0,0.0
10:03:18,-41.343,0.0,0.0
10:03:18,-31.642,0.0,0.0
10:03:18,-115.392,0.0,0.0
10:03:18,7.507,0.0,0.0
10:03:18,-108.607,0.0,0.0
10:03:18,-43.098,0.0,0.0
10:03:18,-31.916,0.0,0.0
10:03:18,-116.247,0.0,0.0
10:03:18,8.033,0.0,0.0
10:03:18,-104.567,0.0,0.0
10:03:18,-34.621,0.0,0.0
10:03:18,-21.539,0.0,0.0
10:03:18,-112.399,0.0,0.0
10:03:18,1.401,0.0,0.0
10:03:18,-121.844,0.0,0.0
10:03:18,-55.677,0.0,0.0
10:03:18,-36.649,0.0,0.0
10:03:18,-118.589,0.0,0.0
10:03:18,7.074,0.0,0.0
10:03:18,-107.262,0.0,0.0
10:03:18,-43.869,0.0,0.0
10:03:18,-29.939,0.0,0.0
10:03:18,-115.939,0.0,0.0
10:03:18,8.445,0.0,0.0
10:03:18,-105.828,0.0,0.0
10:03:18,-43.194,0.0,0.0
10:03:18,-27.902,0.0,0.0
10:03:18,-114.717,0.0,0.0
10:03:18,9.316,0.0,0.0
10:03:18,-104.552,0.0,0.0
10:03:18,-42.662,0.0,0.0
10:03:18,-26.663,0.0,0.0
10:03:18,-113.59,0.0,0.0
10:03:18,10.708,0.0,0.0
10:03:18,-102.766,0.0,0.0
10:03:18,-41.657,0.0,0.0
10:03:18,-24.874,0.0,0.0
10:03:18,-112.602,0.0,0.0
10:03:18,12.001,0.0,0.0
10:03:18,-101.071,0.0,0.0
10:03:18,-41.001,0.0,0.0
10:03:18,-23.412,0.0,0.0
10:03:18,-112.267,0.0,0.0
10:03:18,11.758,0.0,0.0
10:03:18,-101.394,0.0,0.0
10:03:18,-42.542,0.0,0.0
10:03:18,-25.156,0.0,0.0
10:03:18,-115.032,0.0,0.0
10:03:18,8.871,0.0,0.0
10:03:18,-104.045,0.0,0.0
10:03:18,-45.892,0.0,0.0
10:03:18,-26.682,0.0,0.0
10:03:18,-116.472,0.0,0.0
10:03:18,8.018,0.0,0.0
10:03:19,-104.009,0.0,0.0
10:03:19,-46.38,0.0,0.0
10:03:19,-26.514,0.0,0.0
10:03:19,-117.047,0.0,0.0
10:03:19,7.939,0.0,0.0
10:03:19,-103.879,0.0,0.0
10:03:19,-47.157,0.0,0.0
10:03:19,-26.316,0.0,0.0
10:03:19,-117.261,0.0,0.0
10:03:19,7.621,0.0,0.0
10:03:19,-103.444,0.0,0.0
10:03:19,-47.184,0.0,0.0
10:03:19,-25.839,0.0,0.0
10:03:19,-117.459,0.0,0.0
10:03:19,7.514,0.0,0.0
10:03:19,-103.376,0.0,0.0
10:03:19,-47.93,0.0,0.0
10:03:19,-25.366,0.0,0.0
10:03:19,-117.472,0.0,0.0
10:03:19,7.581,0.0,0.0
10:03:19,-102.841,0.0,0.0
10:03:19,-48.352,0.0,0.0
10:03:19,-24.768,0.0,0.0
10:03:19,-117.523,0.0,0.0
10:03:19,7.326,0.0,0.0
10:03:19,-102.319,0.0,0.0
10:03:19,-48.919,0.0,0.0
10:03:19,-24.908,0.0,0.0
10:03:19,-117.97,0.0,0.0
10:03:19,7.234,0.0,0.0
10:03:19,-102.532,0.0,0.0
10:03:19,-49.854,0.0,0.0
10:03:19,-24.819,0.0,0.0
10:03:19,-117.681,0.0,0.0
10:03:19,8.396,0.0,0.0
10:03:19,-100.505,0.0,0.0
10:03:19,-48.141,0.0,0.0
10:03:19,-21.223,0.0,0.0
10:03:19,-115.029,0.0,0.0
10:03:19,9.821,0.0,0.0
10:03:19,-99.007,0.0,0.0
10:03:19,-48.408,0.0,0.0
10:03:19,-22.604,0.0,0.0
10:03:19,-118.343,0.0,0.0
10:03:19,6.341,0.0,0.0
10:03:19,-101.991,0.0,0.0
10:03:19,-51.751,0.0,0.0
10:03:19,-24.342,0.0,0.0
10:03:19,-119.914,0.0,0.0
10:03:19,5.583,0.0,0.0
10:03:19,-101.745,0.0,0.0
10:03:19,-52.206,0.0,0.0
10:03:19,-23.237,0.0,0.0
10:03:19,-117.087,0.0,0.0
10:03:19,13.024,0.0,0.0
10:03:19,-92.279,0.0,0.0
10:03:19,-47.596,0.0,0.0
10:03:19,-26.713,0.0,0.0
10:03:19,-131.614,0.0,0.0
10:03:19,-5.497,0.0,0.0
10:03:19,-107.192,0.0,0.0
10:03:19,-55.325,0.0,0.0
10:03:19,-23.101,0.0,0.0
10:03:19,-119.671,0.0,0.0
10:03:19,6.356,0.0,0.0
10:03:19,-99.762,0.0,0.0
10:03:19,-52.401,0.0,0.0
10:03:19,-21.355,0.0,0.0
10:03:19,-118.904,0.0,0.0
10:03:19,6.819,0.0,0.0
10:03:19,-98.686,0.0,0.0
10:03:19,-52.052,0.0,0.0
10:03:19,-20.222,0.0,0.0
10:03:19,-118.103,0.0,0.0
10:03:19,8.096,0.0,0.0
10:03:19,-96.897,0.0,0.0
10:03:19,-51.261,0.0,0.0
10:03:19,-18.731,0.0,0.0
10:03:19,-117.057,0.0,0.0
10:03:19,8.741,0.0,0.0
10:03:19,-95.336,0.0,0.0
10:03:19,-50.49,0.0,0.0
10:03:19,-17.055,0.0,0.0
10:03:19,-116.041,0.0,0.0
10:03:19,9.845,0.0,0.0
10:03:19,-94.211,0.0,0.0
10:03:19,-50.384,0.0,0.0
10:03:19,-16.885,0.0,0.0
10:03:19,-117.046,0.0,0.0
10:03:19,8.379,0.0,0.0
10:03:19,-95.631,0.0,0.0
10:03:19,-53.099,0.0,0.0
10:03:19,-18.995,0.0,0.0
10:03:19,-119.561,0.0,0.0
10:03:19,6.139,0.0,0.0
10:03:19,-97.326,0.0,0.0
10:03:19,-55.502,0.0,0.0
10:03:19,-19.945,0.0,0.0
10:03:19,-120.602,0.0,0.0
10:03:19,5.574,0.0,0.0
10:03:19,-96.969,0.0,0.0
10:03:19,-55.792,0.0,0.0
10:03:19,-19.282,0.0,0.0
10:03:19,-120.877,0.0,0.0
10:03:19,5.225,0.0,0.0
10:03:19,-97.011,0.0,0.0
10:03:19,-56.581,0.0,0.0
10:03:19,-18.934,0.0,0.0
10:03:19,-120.757,0.0,0.0
10:03:19,5.374,0.0,0.0
10:03:19,-96.478,0.0,0.0
10:03:19,-57.038,0.0,0.0
10:03:19,-18.95,0.0,0.0
10:03:19,-121.257,0.0,0.0
10:03:19,4.946,0.0,0.0
10:03:19,-95.965,0.0,0.0
10:03:19,-57.231,0.0,0.0
10:03:19,-18.356,0.0,0.0
10:03:19,-121.225,0.0,0.0
10:03:19,4.744,0.0,0.0
10:03:19,-96.078,0.0,0.0
10:03:19,-58.051,0.0,0.0
10:03:19,-18.189,0.0,0.0
10:03:19,-121.671,0.0,0.0
10:03:19,4.158,0.0,0.0
10:03:20,-95.626,0.0,0.0
10:03:20,-58.375,0.0,0.0
10:03:20,-17.094,0.0,0.0
10:03:20,-119.969,0.0,0.0
10:03:20,5.758,0.0,0.0
10:03:20,-93.273,0.0,0.0
10:03:20,-55.911,0.0,0.0
10:03:20,-14.362,0.0,0.0
10:03:20,-118.847,0.0,0.0
10:03:20,6.513,0.0,0.0
10:03:20,-93.301,0.0,0.0
10:03:20,-58.67,0.0,0.0
10:03:20,-17.044,0.0,0.0
10:03:20,-122.156,0.0,0.0
10:03:20,3.165,0.0,0.0
10:03:20,-95.617,0.0,0.0
10:03:20,-61.279,0.0,0.0
10:03:20,-18.259,0.0,0.0
10:03:20,-123.144,0.0,0.0
10:03:20,2.716,0.0,0.0
10:03:20,-95.337,0.0,0.0
10:03:20,-60.136,0.0,0.0
10:03:20,-11.512,0.0,0.0
10:03:20,-112.482,0.0,0.0
10:03:20,10.396,0.0,0.0
10:03:20,-94.746,0.0,0.0
10:03:20,-71.553,0.0,0.0
10:03:20,-31.229,0.0,0.0
10:03:20,-131.196,0.0,0.0
10:03:20,-0.603,0.0,0.0
10:03:20,-95.07,0.0,0.0
10:03:20,-61.713,0.0,0.0
10:03:20,-15.724,0.0,0.0
10:03:20,-121.907,0.0,0.0
10:03:20,3.778,0.0,0.0
10:03:20,-92.597,0.0,0.0
10:03:20,-61.095,0.0,0.0
10:03:20,-14.271,0.0,0.0
10:03:20,-120.901,0.0,0.0
10:03:20,4.846,0.0,0.0
10:03:20,-91.019,0.0,0.0
10:03:20,-60.19,0.0,0.0
10:03:20,-12.562,0.0,0.0
10:03:20,-119.643,0.0,0.0
10:03:20,6.131,0.0,0.0
10:03:20,-89.127,0.0,0.0
10:03:20,-58.942,0.0,0.0
10:03:20,-10.704,0.0,0.0
10:03:20,-118.274,0.0,0.0
10:03:20,7.671,0.0,0.0
10:03:20,-86.744,0.0,0.0
10:03:20,-57.232,0.0,0.0
10:03:20,-7.942,0.0,0.0
10:03:20,-116.017,0.0,0.0
10:03:20,9.223,0.0,0.0
10:03:20,-85.292,0.0,0.0
10:03:20,-57.544,0.0,0.0
10:03:20,-8.889,0.0,0.0
10:03:20,-118.113,0.0,0.0
10:03:20,6.38,0.0,0.0
10:03:20,-88.298,0.0,0.0
10:03:20,-61.467,0.0,0.0
10:03:20,-11.629,0.0,0.0
10:03:20,-120.932,0.0,0.0
10:03:20,3.809,0.0,0.0
10:03:20,-89.564,0.0,0.0
10:03:20,-62.738,0.0,0.0
10:03:20,-11.98,0.0,0.0
10:03:20,-121.616,0.0,0.0
10:03:20,3.739,0.0,0.0
10:03:20,-89.246,0.0,0.0
10:03:20,-63.162,0.0,0.0
10:03:20,-11.479,0.0,0.0
10:03:20,-121.591,0.0,0.0
10:03:20,3.829,0.0,0.0
10:03:20,-88.513,0.0,0.0
10:03:20,-63.419,0.0,0.0
10:03:20,-10.941,0.0,0.0
10:03:20,-121.458,0.0,0.0
10:03:20,3.734,0.0,0.0
10:03:20,-87.947,0.0,0.0
10:03:20,-63.531,0.0,0.0
10:03:20,-10.395,0.0,0.0
10:03:20,-121.596,0.0,0.0
10:03:20,3.667,0.0,0.0
10:03:20,-87.616,0.0,0.0
10:03:20,-64.387,0.0,0.0
10:03:20,-10.557,0.0,0.0
10:03:20,-121.752,0.0,0.0
10:03:20,3.339,0.0,0.0
10:03:20,-87.503,0.0,0.0
10:03:20,-65.086,0.0,0.0
10:03:20,-10.447,0.0,0.0
10:03:20,-122.392,0.0,0.0
10:03:20,2.773,0.0,0.0
10:03:20,-87.357,0.0,0.0
10:03:20,-65.592,0.0,0.0
10:03:20,-10.339,0.0,0.0
10:03:20,-122.423,0.0,0.0
10:03:20,3.232,0.0,0.0
10:03:20,-85.154,0.0,0.0
10:03:20,-63.8,0.0,0.0
10:03:20,-7.774,0.0,0.0
10:03:20,-119.158,0.0,0.0
10:03:20,6.143,0.0,0.0
10:03:20,-83.269,0.0,0.0
10:03:20,-62.926,0.0,0.0
10:03:20,-6.631,0.0,0.0
10:03:20,-120.99,0.0,0.0
10:03:20,2.924,0.0,0.0
10:03:20,-86.087,0.0,0.0
10:03:20,-67.179,0.0,0.0
10:03:20,-10.024,0.0,0.0
10:03:20,-123.822,0.0,0.0
10:03:20,0.945,0.0,0.0
10:03:20,-87.122,0.0,0.0
10:03:20,-68.331,0.0,0.0
10:03:20,-9.893,0.0,0.0
10:03:20,-123.119,0.0,0.0
10:03:20,6.135,0.0,0.0
10:03:20,-75.717,0.0,0.0
10:03:20,-59.565,0.0,0.0
10:03:20,-8.622,0.0,0.0
10:03:20,-133.341,0.0,0.0
10:03:20,-15.931,0.0,0.0
10:03:20,-97.286,0.0,0.0
10:03:21,-73.312,0.0,0.0
10:03:21,-10.316,0.0,0.0
10:03:21,-123.721,0.0,0.0
10:03:21,1.973,0.0,0.0
10:03:21,-84.057,0.0,0.0
10:03:21,-67.914,0.0,0.0
10:03:21,-6.811,0.0,0.0
10:03:21,-122.006,0.0,0.0
10:03:21,2.841,0.0,0.0
10:03:21,-82.782,0.0,0.0
10:03:21,-67.447,0.0,0.0
10:03:21,-5.636,0.0,0.0
10:03:21,-121.216,0.0,0.0
10:03:21,3.603,0.0,0.0
10:03:21,-81.333,0.0,0.0
10:03:21,-66.784,0.0,0.0
10:03:21,-4.061,0.0,0.0
10:03:21,-119.807,0.0,0.0
10:03:21,5.518,0.0,0.0
10:03:21,-78.666,0.0,0.0
10:03:21,-65.057,0.0,0.0
10:03:21,-1.377,0.0,0.0
10:03:21,-117.744,0.0,0.0
10:03:21,6.942,0.0,0.0
10:03:21,-76.885,0.0,0.0
10:03:21,-64.421,0.0,0.0
10:03:21,-0.59,0.0,0.0
10:03:21,-118.115,0.0,0.0
10:03:21,5.407,0.0,0.0
10:03:21,-78.786,0.0,0.0
10:03:21,-68.276,0.0,0.0
10:03:21,-4.362,0.0,0.0
10:03:21,-122.309,0.0,0.0
10:03:21,1.019,0.0,0.0
10:03:21,-81.905,0.0,0.0
10:03:21,-71.736,0.0,0.0
10:03:21,-6.698,0.0,0.0
10:03:21,-124.247,0.0,0.0
10:03:21,-0.417,0.0,0.0
10:03:21,-82.337,0.0,0.0
10:03:21,-72.508,0.0,0.0
10:03:21,-6.514,0.0,0.0
10:03:21,-123.852,0.0,0.0
10:03:21,-0.356,0.0,0.0
10:03:21,-81.554,0.0,0.0
10:03:21,-72.267,0.0,0.0
10:03:21,-5.483,0.0,0.0
10:03:21,-122.573,0.0,0.0
10:03:21,0.791,0.0,0.0
10:03:21,-79.3,0.0,0.0
10:03:21,-70.656,0.0,0.0
10:03:21,-2.977,0.0,0.0
10:03:21,-120.719,0.0,0.0
10:03:21,2.203,0.0,0.0
10:03:21,-77.514,0.0,0.0
10:03:21,-69.822,0.0,0.0
10:03:21,-1.177,0.0,0.0
10:03:21,-119.064,0.0,0.0
10:03:21,4.364,0.0,0.0
10:03:21,-74.241,0.0,0.0
10:03:21,-66.532,0.0,0.0
10:03:21,4.685,0.0,0.0
10:03:21,-110.454,0.0,0.0
10:03:21,12.378,0.0,0.0
10:03:21,-69.942,0.0,0.0
10:03:21,-66.43,0.0,0.0
10:03:21,2.795,0.0,0.0
10:03:21,-117.076,0.0,0.0
10:03:21,4.802,0.0,0.0
10:03:21,-73.758,0.0,0.0
10:03:21,-69.662,0.0,0.0
10:03:21,0.48,0.0,0.0
10:03:21,-119.934,0.0,0.0
10:03:21,1.708,0.0,0.0
10:03:21,-75.847,0.0,0.0
10:03:21,-72.219,0.0,0.0
10:03:21,-0.847,0.0,0.0
10:03:21,-120.179,0.0,0.0
10:03:21,2.709,0.0,0.0
10:03:21,-73.874,0.0,0.0
10:03:21,-71.56,0.0,0.0
10:03:21,1.534,0.0,0.0
10:03:21,-119.059,0.0,0.0
10:03:21,2.031,0.0,0.0
10:03:21,-74.102,0.0,0.0
10:03:21,-72.905,0.0,0.0
10:03:21,-0.945,0.0,0.0
10:03:21,-122.959,0.0,0.0
10:03:21,-1.741,0.0,0.0
10:03:21,-77.204,0.0,0.0
10:03:21,-76.374,0.0,0.0
10:03:21,-2.634,0.0,0.0
10:03:21,-124.342,0.0,0.0
10:03:21,-2.861,0.0,0.0
10:03:21,-77.551,0.0,0.0
10:03:21,-77.747,0.0,0.0
10:03:21,-2.266,0.0,0.0
10:03:21,-120.029,0.0,0.0
10:03:21,6.67,0.0,0.0
10:03:21,-70.186,0.0,0.0
10:03:21,-81.766,0.0,0.0
10:03:21,-18.753,0.0,0.0
10:03:21,-149.168,0.0,0.0
10:03:21,-22.189,0.0,0.0
10:03:21,-88.618,0.0,0.0
10:03:21,-88.139,0.0,0.0
10:03:21,-10.559,0.0,0.0
10:03:21,-133.184,0.0,0.0
10:03:21,-12.087,0.0,0.0
10:03:21,-85.165,0.0,0.0
10:03:21,-88.344,0.0,0.0
10:03:21,-10.651,0.0,0.0
10:03:21,-133.536,0.0,0.0
10:03:21,-11.761,0.0,0.0
10:03:21,-82.727,0.0,0.0
10:03:21,-86.144,0.0,0.0
10:03:21,-7.574,0.0,0.0
10:03:21,-130.137,0.0,0.0
10:03:21,-9.346,0.0,0.0
10:03:21,-79.862,0.0,0.0
10:03:21,-84.772,0.0,0.0
10:03:21,-7.006,0.0,0.0
10:03:21,-130.111,0.0,0.0
10:03:21,-9.1,0.0,0.0
10:03:21,-77.426,0.0,0.0
10:03:22,-81.286,0.0,0.0
10:03:22,-0.959,0.0,0.0
10:03:22,-123.772,0.0,0.0
10:03:22,-3.439,0.0,0.0
10:03:22,-72.466,0.0,0.0
10:03:22,-78.601,0.0,0.0
10:03:22,1.48,0.0,0.0
10:03:22,-123.017,0.0,0.0
10:03:22,-3.492,0.0,0.0
10:03:22,-73.622,0.0,0.0
10:03:22,-81.668,0.0,0.0
10:03:22,-1.078,0.0,0.0
10:03:22,-126.471,0.0,0.0
10:03:22,-6.891,0.0,0.0
10:03:22,-75.676,0.0,0.0
10:03:22,-84.359,0.0,0.0
10:03:22,-2.616,0.0,0.0
10:03:22,-127.62,0.0,0.0
10:03:22,-7.779,0.0,0.0
10:03:22,-75.447,0.0,0.0
10:03:22,-84.501,0.0,0.0
10:03:22,-1.658,0.0,0.0
10:03:22,-127.698,0.0,0.0
10:03:22,-7.584,0.0,0.0
10:03:22,-74.845,0.0,0.0
10:03:22,-84.886,0.0,0.0
10:03:22,-0.604,0.0,0.0
10:03:22,-127.025,0.0,0.0
10:03:22,-6.942,0.0,0.0
10:03:22,-73.518,0.0,0.0
10:03:22,-84.367,0.0,0.0
10:03:22,-0.079,0.0,0.0
10:03:22,-126.498,0.0,0.0
10:03:22,-6.951,0.0,0.0
10:03:22,-73.305,0.0,0.0
10:03:22,-85.998,0.0,0.0
10:03:22,-0.978,0.0,0.0
10:03:22,-127.533,0.0,0.0
10:03:22,-8.37,0.0,0.0
10:03:22,-73.264,0.0,0.0
10:03:22,-85.968,0.0,0.0
10:03:22,-0.432,0.0,0.0
10:03:22,-126.102,0.0,0.0
10:03:22,-7.611,0.0,0.0
10:03:22,-71.491,0.0,0.0
10:03:22,-84.52,0.0,0.0
10:03:22,1.125,0.0,0.0
10:03:22,-124.605,0.0,0.0
10:03:22,-7.683,0.0,0.0
10:03:22,-71.267,0.0,0.0
10:03:22,-85.913,0.0,0.0
10:03:22,-0.261,0.0,0.0
10:03:22,-125.806,0.0,0.0
10:03:22,-9.034,0.0,0.0
10:03:22,-71.676,0.0,0.0
10:03:22,-86.862,0.0,0.0
10:03:22,0.468,0.0,0.0
10:03:22,-123.793,0.0,0.0
10:03:22,-7.204,0.0,0.0
10:03:22,-68.623,0.0,0.0
10:03:22,-82.886,0.0,0.0
10:03:22,4.465,0.0,0.0
10:03:22,-121.633,0.0,0.0
10:03:22,-6.219,0.0,0.0
10:03:22,-67.784,0.0,0.0
10:03:22,-85.422,0.0,0.0
10:03:22,0.703,0.0,0.0
10:03:22,-125.324,0.0,0.0
10:03:22,-10.286,0.0,0.0
10:03:22,-70.621,0.0,0.0
10:03:22,-88.336,0.0,0.0
10:03:22,-0.407,0.0,0.0
10:03:22,-126.618,0.0,0.0
10:03:22,-10.911,0.0,0.0
10:03:22,-70.843,0.0,0.0
10:03:22,-89.002,0.0,0.0
10:03:22,3.856,0.0,0.0
10:03:22,-117.315,0.0,0.0
10:03:22,1.102,0.0,0.0
10:03:22,-65.494,0.0,0.0
10:03:22,-97.916,0.0,0.0
10:03:22,-17.309,0.0,0.0
10:03:22,-142.027,0.0,0.0
10:03:22,-17.5,0.0,0.0
10:03:22,-72.161,0.0,0.0
10:03:22,-91.344,0.0,0.0
10:03:22,0.929,0.0,0.0
10:03:22,-126.877,0.0,0.0
10:03:22,-11.012,0.0,0.0
10:03:22,-68.582,0.0,0.0
10:03:22,-89.341,0.0,0.0
10:03:22,3.283,0.0,0.0
10:03:22,-124.58,0.0,0.0
10:03:22,-9.259,0.0,0.0
10:03:22,-66.12,0.0,0.0
10:03:22,-88.081,0.0,0.0
10:03:22,4.666,0.0,0.0
10:03:22,-123.102,0.0,0.0
10:03:22,-7.916,0.0,0.0
10:03:22,-63.681,0.0,0.0
10:03:22,-86.53,0.0,0.0
10:03:22,6.798,0.0,0.0
10:03:22,-120.927,0.0,0.0
10:03:22,-6.906,0.0,0.0
10:03:22,-61.727,0.0,0.0
10:03:22,-85.633,0.0,0.0
10:03:22,7.884,0.0,0.0
10:03:22,-120.327,0.0,0.0
10:03:22,-6.958,0.0,0.0
10:03:22,-61.033,0.0,0.0
10:03:22,-85.916,0.0,0.0
10:03:22,7.297,0.0,0.0
10:03:22,-121.342,0.0,0.0
10:03:22,-8.961,0.0,0.0
10:03:22,-62.875,0.0,0.0
10:03:22,-89.161,0.0,0.0
10:03:22,4.385,0.0,0.0
10:03:22,-123.535,0.0,0.0
10:03:22,-11.832,0.0,0.0
10:03:22,-64.459,0.0,0.0
10:03:22,-91.47,0.0,0.0
10:03:22,3.169,0.0,0.0
10:03:22,-124.13,0.0,0.0
10:03:22,-13.166,0.0,0.0
10:03:22,-64.405,0.0,0.0
10:03:23,-91.444,0.0,0.0
10:03:23,3.053,0.0,0.0
10:03:23,-123.242,0.0,0.0
10:03:23,-13.202,0.0,0.0
10:03:23,-63.325,0.0,0.0
10:03:23,-91.182,0.0,0.0
10:03:23,3.627,0.0,0.0
10:03:23,-122.187,0.0,0.0
10:03:23,-13.149,0.0,0.0
10:03:23,-62.562,0.0,0.0
10:03:23,-91.36,0.0,0.0
10:03:23,3.855,0.0,0.0
10:03:23,-122.297,0.0,0.0
10:03:23,-14.183,0.0,0.0
10:03:23,-62.612,0.0,0.0
10:03:23,-92.35,0.0,0.0
10:03:23,2.923,0.0,0.0
10:03:23,-123.106,0.0,0.0
10:03:23,-15.678,0.0,0.0
10:03:23,-62.787,0.0,0.0
10:03:23,-93.244,0.0,0.0
10:03:23,2.795,0.0,0.0
10:03:23,-123.232,0.0,0.0
10:03:23,-16.035,0.0,0.0
10:03:23,-62.4,0.0,0.0
10:03:23,-94.013,0.0,0.0
10:03:23,2.675,0.0,0.0
10:03:23,-123.243,0.0,0.0
10:03:23,-16.739,0.0,0.0
10:03:23,-62.244,0.0,0.0
10:03:23,-94.835,0.0,0.0
10:03:23,2.271,0.0,0.0
10:03:23,-123.332,0.0,0.0
10:03:23,-16.84,0.0,0.0
10:03:23,-60.303,0.0,0.0
10:03:23,-92.889,0.0,0.0
10:03:23,5.126,0.0,0.0
10:03:23,-120.004,0.0,0.0
10:03:23,-12.644,0.0,0.0
10:03:23,-56.546,0.0,0.0
10:03:23,-91.411,0.0,0.0
10:03:23,6.286,0.0,0.0
10:03:23,-120.356,0.0,0.0
10:03:23,-16.484,0.0,0.0
10:03:23,-60.265,0.0,0.0
10:03:23,-96.014,0.0,0.0
10:03:23,2.344,0.0,0.0
10:03:23,-123.806,0.0,0.0
10:03:23,-19.319,0.0,0.0
10:03:23,-61.446,0.0,0.0
10:03:23,-97.523,0.0,0.0
10:03:23,2.288,0.0,0.0
10:03:23,-123.496,0.0,0.0
10:03:23,-17.679,0.0,0.0
10:03:23,-52.894,0.0,0.0
10:03:23,-84.495,0.0,0.0
10:03:23,11.819,0.0,0.0
10:03:23,-125.209,0.0,0.0
10:03:23,-35.018,0.0,0.0
10:03:23,-77.969,0.0,0.0
10:03:23,-107.491,0.0,0.0
10:03:23,-0.766,0.0,0.0
10:03:23,-124.228,0.0,0.0
10:03:23,-19.964,0.0,0.0
10:03:23,-58.573,0.0,0.0
10:03:23,-97.592,0.0,0.0
10:03:23,4.218,0.0,0.0
10:03:23,-122.038,0.0,0.0
10:03:23,-18.797,0.0,0.0
10:03:23,-57.562,0.0,0.0
10:03:23,-97.595,0.0,0.0
10:03:23,5.684,0.0,0.0
10:03:23,-121.464,0.0,0.0
10:03:23,-18.228,0.0,0.0
10:03:23,-55.784,0.0,0.0
10:03:23,-96.702,0.0,0.0
10:03:23,6.987,0.0,0.0
10:03:23,-119.821,0.0,0.0
10:03:23,-16.891,0.0,0.0
10:03:23,-53.615,0.0,0.0
10:03:23,-95.568,0.0,0.0
10:03:23,9.245,0.0,0.0
10:03:23,-118.925,0.0,0.0
10:03:23,-15.769,0.0,0.0
10:03:23,-52.214,0.0,0.0
10:03:23,-95.904,0.0,0.0
10:03:23,10.618,0.0,0.0
10:03:23,-120.009,0.0,0.0
10:03:23,-16.411,0.0,0.0
10:03:23,-53.115,0.0,0.0
10:03:23,-99.722,0.0,0.0
10:03:23,9.569,0.0,0.0
10:03:23,-124.316,0.0,0.0
10:03:23,-19.646,0.0,0.0
10:03:23,-55.395,0.0,0.0
10:03:23,-103.786,0.0,0.0
10:03:23,10.226,0.0,0.0
10:03:23,-129.816,0.0,0.0
10:03:23,-20.96,0.0,0.0
10:03:23,-56.587,0.0,0.0
10:03:23,-110.106,0.0,0.0
10:03:23,11.218,0.0,0.0
10:03:23,-133.195,0.0,0.0
10:03:23,-20.831,0.0,0.0
10:03:23,-56.448,0.0,0.0
10:03:23,-113.929,0.0,0.0
10:03:23,14.935,0.0,0.0
10:03:23,-136.621,0.0,0.0
10:03:23,-20.522,0.0,0.0
10:03:23,-53.866,0.0,0.0
10:03:23,-115.494,0.0,0.0
10:03:23,17.249,0.0,0.0
10:03:23,-136.654,0.0,0.0
10:03:23,-19.819,0.0,0.0
10:03:23,-52.0,0.0,0.0
10:03:23,-115.827,0.0,0.0
10:03:23,18.783,0.0,0.0
10:03:23,-135.902,0.0,0.0
10:03:23,-19.667,0.0,0.0
10:03:23,-51.992,0.0,0.0
10:03:23,-117.931,0.0,0.0
10:03:23,19.833,0.0,0.0
10:03:23,-138.453,0.0,0.0
10:03:23,-20.537,0.0,0.0
10:03:23,-51.287,0.0,0.0
10:03:24,-118.724,0.0,0.0
10:03:24,20.383,0.0,0.0
10:03:24,-136.837,0.0,0.0
10:03:24,-17.842,0.0,0.0
10:03:24,-47.093,0.0,0.0
10:03:24,-115.719,0.0,0.0
10:03:24,25.775,0.0,0.0
10:03:24,-131.321,0.0,0.0
10:03:24,-15.552,0.0,0.0
10:03:24,-44.221,0.0,0.0
10:03:24,-113.953,0.0,0.0
10:03:24,23.48,0.0,0.0
10:03:24,-132.606,0.0,0.0
10:03:24,-19.631,0.0,0.0
10:03:24,-46.902,0.0,0.0
10:03:24,-114.981,0.0,0.0
10:03:24,19.231,0.0,0.0
10:03:24,-129.706,0.0,0.0
10:03:24,-20.436,0.0,0.0
10:03:24,-46.698,0.0,0.0
10:03:24,-112.257,0.0,0.0
10:03:24,17.933,0.0,0.0
10:03:24,-121.254,0.0,0.0
10:03:24,-9.721,0.0,0.0
10:03:24,-34.552,0.0,0.0
10:03:24,-103.575,0.0,0.0
10:03:24,6.622,0.0,0.0
10:03:24,-140.116,0.0,0.0
10:03:24,-33.741,0.0,0.0
10:03:24,-51.252,0.0,0.0
10:03:24,-105.549,0.0,0.0
10:03:24,13.607,0.0,0.0
10:03:24,-118.024,0.0,0.0
10:03:24,-19.48,0.0,0.0
10:03:24,-44.199,0.0,0.0
10:03:24,-99.272,0.0,0.0
10:03:24,14.065,0.0,0.0
10:03:24,-113.735,0.0,0.0
10:03:24,-18.758,0.0,0.0
10:03:24,-43.157,0.0,0.0
10:03:24,-95.941,0.0,0.0
10:03:24,12.935,0.0,0.0
10:03:24,-110.72,0.0,0.0
10:03:24,-17.972,0.0,0.0
10:03:24,-42.46,0.0,0.0
10:03:24,-94.611,0.0,0.0
10:03:24,12.469,0.0,0.0
10:03:24,-108.919,0.0,0.0
10:03:24,-18.294,0.0,0.0
10:03:24,-41.871,0.0,0.0
10:03:24,-93.177,0.0,0.0
10:03:24,11.959,0.0,0.0
10:03:24,-107.535,0.0,0.0
10:03:24,-18.876,0.0,0.0
10:03:24,-42.065,0.0,0.0
10:03:24,-93.209,0.0,0.0
10:03:24,10.588,0.0,0.0
10:03:24,-107.712,0.0,0.0
10:03:24,-20.949,0.0,0.0
10:03:24,-44.014,0.0,0.0
10:03:24,-95.334,0.0,0.0
10:03:24,7.295,0.0,0.0
10:03:24,-109.777,0.0,0.0
10:03:24,-24.256,0.0,0.0
10:03:24,-45.637,0.0,0.0
10:03:24,-96.422,0.0,0.0
10:03:24,5.855,0.0,0.0
10:03:24,-109.749,0.0,0.0
10:03:24,-25.501,0.0,0.0
10:03:24,-45.911,0.0,0.0
10:03:24,-97.342,0.0,0.0
10:03:24,4.627,0.0,0.0
10:03:24,-110.121,0.0,0.0
10:03:24,-26.324,0.0,0.0
10:03:24,-46.011,0.0,0.0
10:03:24,-98.167,0.0,0.0
10:03:24,4.814,0.0,0.0
10:03:24,-110.517,0.0,0.0
10:03:24,-26.885,0.0,0.0
10:03:24,-45.292,0.0,0.0
10:03:24,-99.511,0.0,0.0
10:03:24,5.714,0.0,0.0
10:03:24,-110.783,0.0,0.0
10:03:24,-27.558,0.0,0.0
10:03:24,-45.194,0.0,0.0
10:03:24,-101.081,0.0,0.0
10:03:24,5.044,0.0,0.0
10:03:24,-112.084,0.0,0.0
10:03:24,-29.069,0.0,0.0
10:03:24,-45.498,0.0,0.0
10:03:24,-102.819,0.0,0.0
10:03:24,4.877,0.0,0.0
10:03:24,-112.239,0.0,0.0
10:03:24,-28.376,0.0,0.0
10:03:24,-43.624,0.0,0.0
10:03:24,-103.069,0.0,0.0
10:03:24,6.677,0.0,0.0
10:03:24,-111.636,0.0,0.0
10:03:24,-29.009,0.0,0.0
10:03:24,-43.858,0.0,0.0
10:03:24,-105.463,0.0,0.0
10:03:24,5.277,0.0,0.0
10:03:24,-116.437,0.0,0.0
10:03:24,-33.436,0.0,0.0
10:03:24,-46.935,0.0,0.0
10:03:24,-110.884,0.0,0.0
10:03:24,3.389,0.0,0.0
10:03:24,-119.64,0.0,0.0
10:03:24,-35.014,0.0,0.0
10:03:24,-46.624,0.0,0.0
10:03:24,-113.321,0.0,0.0
10:03:24,5.147,0.0,0.0
10:03:24,-117.988,0.0,0.0
10:03:24,-27.171,0.0,0.0
10:03:24,-35.519,0.0,0.0
10:03:24,-112.282,0.0,0.0
10:03:24,2.316,0.0,0.0
10:03:24,-138.411,0.0,0.0
10:03:24,-49.451,0.0,0.0
10:03:24,-50.968,0.0,0.0
10:03:24,-124.479,0.0,0.0
10:03:24,10.041,0.0,0.0
10:03:24,-126.544,0.0,0.0
10:03:24,-35.972,0.0,0.0
10:03:24,-40.599,0.0,0.0
10:03:25,-123.367,0.0,0.0
10:03:25,15.783,0.0,0.0
10:03:25,-126.679,0.0,0.0
10:03:25,-35.186,0.0,0.0
10:03:25,-37.044,0.0,0.0
10:03:25,-124.492,0.0,0.0
10:03:25,18.891,0.0,0.0
10:03:25,-124.889,0.0,0.0
10:03:25,-33.308,0.0,0.0
10:03:25,-33.664,0.0,0.0
10:03:25,-123.65,0.0,0.0
10:03:25,21.522,0.0,0.0
10:03:25,-122.015,0.0,0.0
10:03:25,-31.359,0.0,0.0
10:03:25,-30.372,0.0,0.0
10:03:25,-120.742,0.0,0.0
10:03:25,23.674,0.0,0.0
10:03:25,-118.232,0.0,0.0
10:03:25,-30.028,0.0,0.0
10:03:25,-28.634,0.0,0.0
10:03:25,-117.971,0.0,0.0
10:03:25,22.931,0.0,0.0
10:03:25,-116.413,0.0,0.0
10:03:25,-31.209,0.0,0.0
10:03:25,-30.217,0.0,0.0
10:03:25,-117.164,0.0,0.0
10:03:25,19.016,0.0,0.0
10:03:25,-116.104,0.0,0.0
10:03:25,-33.292,0.0,0.0
10:03:25,-32.085,0.0,0.0
10:03:25,-116.569,0.0,0.0
10:03:25,15.867,0.0,0.0
10:03:25,-115.28,0.0,0.0
10:03:25,-34.382,0.0,0.0
10:03:25,-33.107,0.0,0.0
10:03:25,-115.41,0.0,0.0
10:03:25,13.557,0.0,0.0
10:03:25,-112.786,0.0,0.0
10:03:25,-34.449,0.0,0.0
10:03:25,-33.919,0.0,0.0
10:03:25,-112.854,0.0,0.0
10:03:25,12.326,0.0,0.0
10:03:25,-111.779,0.0,0.0
10:03:25,-34.736,0.0,0.0
10:03:25,-34.272,0.0,0.0
10:03:25,-112.395,0.0,0.0
10:03:25,11.083,0.0,0.0
10:03:25,-111.119,0.0,0.0
10:03:25,-35.576,0.0,0.0
10:03:25,-34.57,0.0,0.0
10:03:25,-112.098,0.0,0.0
10:03:25,10.273,0.0,0.0
10:03:25,-110.641,0.0,0.0
10:03:25,-35.455,0.0,0.0
10:03:25,-33.334,0.0,0.0
10:03:25,-110.729,0.0,0.0
10:03:25,12.437,0.0,0.0
10:03:25,-107.309,0.0,0.0
10:03:25,-33.711,0.0,0.0
10:03:25,-31.659,0.0,0.0
10:03:25,-110.446,0.0,0.0
10:03:25,9.997,0.0,0.0
10:03:25,-110.482,0.0,0.0
10:03:25,-38.351,0.0,0.0
10:03:25,-35.864,0.0,0.0
10:03:25,-114.289,0.0,0.0
10:03:25,7.159,0.0,0.0
10:03:25,-112.154,0.0,0.0
10:03:25,-40.306,0.0,0.0
10:03:25,-36.542,0.0,0.0
10:03:25,-115.256,0.0,0.0
10:03:25,6.76,0.0,0.0
10:03:25,-109.031,0.0,0.0
10:03:25,-33.251,0.0,0.0
10:03:25,-26.955,0.0,0.0
10:03:25,-110.654,0.0,0.0
10:03:25,1.322,0.0,0.0
10:03:25,-124.167,0.0,0.0
10:03:25,-52.502,0.0,0.0
10:03:25,-41.784,0.0,0.0
10:03:25,-117.799,0.0,0.0
10:03:25,5.097,0.0,0.0
10:03:25,-111.436,0.0,0.0
10:03:25,-41.771,0.0,0.0
10:03:25,-35.217,0.0,0.0
10:03:25,-114.934,0.0,0.0
10:03:25,6.193,0.0,0.0
10:03:25,-110.108,0.0,0.0
10:03:25,-41.517,0.0,0.0
10:03:25,-34.182,0.0,0.0
10:03:25,-113.882,0.0,0.0
10:03:25,7.227,0.0,0.0
10:03:25,-108.674,0.0,0.0
10:03:25,-40.667,0.0,0.0
10:03:25,-32.192,0.0,0.0
10:03:25,-112.78,0.0,0.0
10:03:25,8.584,0.0,0.0
10:03:25,-106.597,0.0,0.0
10:03:25,-39.526,0.0,0.0
10:03:25,-30.717,0.0,0.0
10:03:25,-111.48,0.0,0.0
10:03:25,9.989,0.0,0.0
10:03:25,-105.301,0.0,0.0
10:03:25,-39.442,0.0,0.0
10:03:25,-29.601,0.0,0.0
10:03:25,-111.511,0.0,0.0
10:03:25,9.179,0.0,0.0
10:03:25,-106.03,0.0,0.0
10:03:25,-41.044,0.0,0.0
10:03:25,-31.077,0.0,0.0
10:03:25,-114.126,0.0,0.0
10:03:25,6.631,0.0,0.0
10:03:25,-107.839,0.0,0.0
10:03:25,-43.687,0.0,0.0
10:03:25,-32.62,0.0,0.0
10:03:25,-115.782,0.0,0.0
10:03:25,5.744,0.0,0.0
10:03:25,-108.632,0.0,0.0
10:03:25,-44.599,0.0,0.0
10:03:25,-32.345,0.0,0.0
10:03:25,-116.606,0.0,0.0
10:03:25,5.546,0.0,0.0
10:03:25,-108.777,0.0,0.0
10:03:25,-45.373,0.0,0.0
10:03:25,-32.08,0.0,0.0
10:03:26,-117.834,0.0,0.0
10:03:26,5.778,0.0,0.0
10:03:26,-108.452,0.0,0.0
10:03:26,-45.93,0.0,0.0
10:03:26,-31.433,0.0,0.0
10:03:26,-118.259,0.0,0.0
10:03:26,5.933,0.0,0.0
10:03:26,-108.42,0.0,0.0
10:03:26,-45.904,0.0,0.0
10:03:26,-29.669,0.0,0.0
10:03:26,-117.61,0.0,0.0
10:03:26,7.259,0.0,0.0
10:03:26,-105.579,0.0,0.0
10:03:26,-44.077,0.0,0.0
10:03:26,-27.667,0.0,0.0
10:03:26,-116.954,0.0,0.0
10:03:26,7.808,0.0,0.0
10:03:26,-107.649,0.0,0.0
10:03:26,-47.77,0.0,0.0
10:03:26,-30.304,0.0,0.0
10:03:26,-120.95,0.0,0.0
10:03:26,5.146,0.0,0.0
10:03:26,-109.618,0.0,0.0
10:03:26,-49.96,0.0,0.0
10:03:26,-30.859,0.0,0.0
10:03:26,-121.412,0.0,0.0
10:03:26,4.903,0.0,0.0
10:03:26,-108.619,0.0,0.0
10:03:26,-47.049,0.0,0.0
10:03:26,-21.982,0.0,0.0
10:03:26,-111.84,0.0,0.0
10:03:26,9.381,0.0,0.0
10:03:26,-113.177,0.0,0.0
10:03:26,-62.496,0.0,0.0
10:03:26,-40.001,0.0,0.0
10:03:26,-126.376,0.0,0.0
10:03:26,3.429,0.0,0.0
10:03:26,-107.658,0.0,0.0
10:03:26,-49.864,0.0,0.0
10:03:26,-28.191,0.0,0.0
10:03:26,-120.325,0.0,0.0
10:03:26,5.965,0.0,0.0
10:03:26,-106.036,0.0,0.0
10:03:26,-49.385,0.0,0.0
10:03:26,-27.069,0.0,0.0
10:03:26,-119.525,0.0,0.0
10:03:26,6.543,0.0,0.0
10:03:26,-104.641,0.0,0.0
10:03:26,-48.963,0.0,0.0
10:03:26,-25.901,0.0,0.0
10:03:26,-118.284,0.0,0.0
10:03:26,7.485,0.0,0.0
10:03:26,-102.735,0.0,0.0
10:03:26,-48.117,0.0,0.0
10:03:26,-24.027,0.0,0.0
10:03:26,-116.286,0.0,0.0
10:03:26,9.039,0.0,0.0
10:03:26,-100.282,0.0,0.0
10:03:26,-46.714,0.0,0.0
10:03:26,-22.744,0.0,0.0
10:03:26,-115.752,0.0,0.0
10:03:26,8.524,0.0,0.0
10:03:26,-100.8,0.0,0.0
10:03:26,-48.511,0.0,0.0
10:03:26,-24.194,0.0,0.0
10:03:26,-117.658,0.0,0.0
10:03:26,5.579,0.0,0.0
10:03:26,-102.931,0.0,0.0
10:03:26,-51.129,0.0,0.0
10:03:26,-26.111,0.0,0.0
10:03:26,-119.479,0.0,0.0
10:03:26,4.111,0.0,0.0
10:03:26,-103.412,0.0,0.0
10:03:26,-52.539,0.0,0.0
10:03:26,-26.356,0.0,0.0
10:03:26,-119.93,0.0,0.0
10:03:26,3.722,0.0,0.0
10:03:26,-103.104,0.0,0.0
10:03:26,-52.813,0.0,0.0
10:03:26,-26.024,0.0,0.0
10:03:26,-119.876,0.0,0.0
10:03:26,3.957,0.0,0.0
10:03:26,-102.438,0.0,0.0
10:03:26,-52.832,0.0,0.0
10:03:26,-25.286,0.0,0.0
10:03:26,-119.997,0.0,0.0
10:03:26,3.708,0.0,0.0
10:03:26,-101.944,0.0,0.0
10:03:26,-53.544,0.0,0.0
10:03:26,-25.249,0.0,0.0
10:03:26,-120.304,0.0,0.0
10:03:26,3.786,0.0,0.0
10:03:26,-100.456,0.0,0.0
10:03:26,-52.362,0.0,0.0
10:03:26,-23.069,0.0,0.0
10:03:26,-117.804,0.0,0.0
10:03:26,6.978,0.0,0.0
10:03:26,-97.94,0.0,0.0
10:03:26,-51.899,0.0,0.0
10:03:26,-22.283,0.0,0.0
10:03:26,-119.629,0.0,0.0
10:03:26,3.071,0.0,0.0
10:03:26,-101.542,0.0,0.0
10:03:26,-56.276,0.0,0.0
10:03:26,-25.789,0.0,0.0
10:03:26,-122.622,0.0,0.0
10:03:26,0.951,0.0,0.0
10:03:26,-102.628,0.0,0.0
10:03:26,-57.564,0.0,0.0
10:03:26,-25.791,0.0,0.0
10:03:26,-122.087,0.0,0.0
10:03:26,4.735,0.0,0.0
10:03:26,-91.96,0.0,0.0
10:03:26,-47.088,0.0,0.0
10:03:26,-21.635,0.0,0.0
10:03:26,-128.762,0.0,0.0
10:03:26,-14.289,0.0,0.0
10:03:26,-113.317,0.0,0.0
10:03:26,-62.744,0.0,0.0
10:03:26,-26.134,0.0,0.0
10:03:26,-122.191,0.0,0.0
10:03:26,1.843,0.0,0.0
10:03:26,-99.437,0.0,0.0
10:03:26,-56.666,0.0,0.0
10:03:26,-22.47,0.0,0.0
10:03:27,-120.704,0.0,0.0
10:03:27,2.855,0.0,0.0
10:03:27,-97.942,0.0,0.0
10:03:27,-56.232,0.0,0.0
10:03:27,-21.037,0.0,0.0
10:03:27,-119.403,0.0,0.0
10:03:27,3.841,0.0,0.0
10:03:27,-96.367,0.0,0.0
10:03:27,-55.401,0.0,0.0
10:03:27,-19.384,0.0,0.0
10:03:27,-117.962,0.0,0.0
10:03:27,5.474,0.0,0.0
10:03:27,-93.995,0.0,0.0
10:03:27,-53.649,0.0,0.0
10:03:27,-16.859,0.0,0.0
10:03:27,-116.133,0.0,0.0
10:03:27,6.983,0.0,0.0
10:03:27,-92.148,0.0,0.0
10:03:27,-53.43,0.0,0.0
10:03:27,-16.662,0.0,0.0
10:03:27,-117.266,0.0,0.0
10:03:27,5.112,0.0,0.0
10:03:27,-94.235,0.0,0.0
10:03:27,-57.216,0.0,0.0
10:03:27,-19.599,0.0,0.0
10:03:27,-120.611,0.0,0.0
10:03:27,2.033,0.0,0.0
10:03:27,-96.647,0.0,0.0
10:03:27,-59.868,0.0,0.0
10:03:27,-21.062,0.0,0.0
10:03:27,-121.969,0.0,0.0
10:03:27,0.984,0.0,0.0
10:03:27,-96.818,0.0,0.0
10:03:27,-60.63,0.0,0.0
10:03:27,-20.689,0.0,0.0
10:03:27,-121.986,0.0,0.0
10:03:27,0.745,0.0,0.0
10:03:27,-95.902,0.0,0.0
10:03:27,-60.52,0.0,0.0
10:03:27,-19.634,0.0,0.0
10:03:27,-121.474,0.0,0.0
10:03:27,1.285,0.0,0.0
10:03:27,-94.991,0.0,0.0
10:03:27,-60.689,0.0,0.0
10:03:27,-19.097,0.0,0.0
10:03:27,-121.171,0.0,0.0
10:03:27,0.918,0.0,0.0
10:03:27,-94.826,0.0,0.0
10:03:27,-61.549,0.0,0.0
10:03:27,-19.459,0.0,0.0
10:03:27,-121.931,0.0,0.0
10:03:27,0.443,0.0,0.0
10:03:27,-93.629,0.0,0.0
10:03:27,-60.178,0.0,0.0
10:03:27,-17.373,0.0,0.0
10:03:27,-119.351,0.0,0.0
10:03:27,3.629,0.0,0.0
10:03:27,-90.886,0.0,0.0
10:03:27,-59.449,0.0,0.0
10:03:27,-16.577,0.0,0.0
10:03:27,-120.398,0.0,0.0
10:03:27,0.034,0.0,0.0
10:03:27,-94.492,0.0,0.0
10:03:27,-64.395,0.0,0.0
10:03:27,-20.674,0.0,0.0
10:03:27,-123.987,0.0,0.0
10:03:27,-2.563,0.0,0.0
10:03:27,-95.789,0.0,0.0
10:03:27,-65.799,0.0,0.0
10:03:27,-20.686,0.0,0.0
10:03:27,-124.144,0.0,0.0
10:03:27,-1.126,0.0,0.0
10:03:27,-87.494,0.0,0.0
10:03:27,-54.219,0.0,0.0
10:03:27,-13.244,0.0,0.0
10:03:27,-126.807,0.0,0.0
10:03:27,-17.246,0.0,0.0
10:03:27,-111.479,0.0,0.0
10:03:27,-75.074,0.0,0.0
10:03:27,-22.8,0.0,0.0
10:03:27,-124.482,0.0,0.0
10:03:27,-2.97,0.0,0.0
10:03:27,-93.291,0.0,0.0
10:03:27,-65.93,0.0,0.0
10:03:27,-18.449,0.0,0.0
10:03:27,-122.469,0.0,0.0
10:03:27,-1.901,0.0,0.0
10:03:27,-91.581,0.0,0.0
10:03:27,-65.149,0.0,0.0
10:03:27,-16.84,0.0,0.0
10:03:27,-121.3,0.0,0.0
10:03:27,-0.704,0.0,0.0
10:03:27,-89.669,0.0,0.0
10:03:27,-64.034,0.0,0.0
10:03:27,-14.709,0.0,0.0
10:03:27,-119.149,0.0,0.0
10:03:27,0.897,0.0,0.0
10:03:27,-86.781,0.0,0.0
10:03:27,-61.957,0.0,0.0
10:03:27,-12.302,0.0,0.0
10:03:27,-116.962,0.0,0.0
10:03:27,2.463,0.0,0.0
10:03:27,-85.026,0.0,0.0
10:03:27,-61.459,0.0,0.0
10:03:27,-11.654,0.0,0.0
10:03:27,-117.249,0.0,0.0
10:03:27,1.092,0.0,0.0
10:03:27,-86.554,0.0,0.0
10:03:27,-64.526,0.0,0.0
10:03:27,-14.448,0.0,0.0
10:03:27,-120.724,0.0,0.0
10:03:27,-2.389,0.0,0.0
10:03:27,-89.161,0.0,0.0
10:03:27,-67.656,0.0,0.0
10:03:27,-16.321,0.0,0.0
10:03:27,-122.286,0.0,0.0
10:03:27,-4.068,0.0,0.0
10:03:27,-89.562,0.0,0.0
10:03:27,-68.727,0.0,0.0
10:03:27,-16.571,0.0,0.0
10:03:27,-122.374,0.0,0.0
10:03:27,-4.239,0.0,0.0
10:03:27,-88.974,0.0,0.0
10:03:27,-68.795,0.0,0.0
10:03:27,-15.924,0.0,0.0
10:03:28,-122.006,0.0,0.0
10:03:28,-3.946,0.0,0.0
10:03:28,-87.947,0.0,0.0
10:03:28,-68.752,0.0,0.0
10:03:28,-14.996,0.0,0.0
10:03:28,-121.52,0.0,0.0
10:03:28,-4.037,0.0,0.0
10:03:28,-87.407,0.0,0.0
10:03:28,-69.293,0.0,0.0
10:03:28,-15.154,0.0,0.0
10:03:28,-121.887,0.0,0.0
10:03:28,-4.986,0.0,0.0
10:03:28,-87.737,0.0,0.0
10:03:28,-70.477,0.0,0.0
10:03:28,-15.615,0.0,0.0
10:03:28,-122.638,0.0,0.0
10:03:28,-5.522,0.0,0.0
10:03:28,-87.457,0.0,0.0
10:03:28,-71.212,0.0,0.0
10:03:28,-15.091,0.0,0.0
10:03:28,-121.039,0.0,0.0
10:03:28,-3.493,0.0,0.0
10:03:28,-84.43,0.0,0.0
10:03:28,-68.357,0.0,0.0
10:03:28,-10.701,0.0,0.0
10:03:28,-118.237,0.0,0.0
10:03:28,-2.114,0.0,0.0
10:03:28,-83.014,0.0,0.0
10:03:28,-69.446,0.0,0.0
10:03:28,-13.99,0.0,0.0
10:03:28,-122.782,0.0,0.0
10:03:28,-7.066,0.0,0.0
10:03:28,-87.344,0.0,0.0
10:03:28,-73.821,0.0,0.0
10:03:28,-15.806,0.0,0.0
10:03:28,-124.056,0.0,0.0
10:03:28,-7.952,0.0,0.0
10:03:28,-87.135,0.0,0.0
10:03:28,-73.936,0.0,0.0
10:03:28,-12.666,0.0,0.0
10:03:28,-114.461,0.0,0.0
10:03:28,4.556,0.0,0.0
10:03:28,-80.679,0.0,0.0
10:03:28,-79.859,0.0,0.0
10:03:28,-31.699,0.0,0.0
10:03:28,-140.52,0.0,0.0
10:03:28,-15.835,0.0,0.0
10:03:28,-88.474,0.0,0.0
10:03:28,-75.224,0.0,0.0
10:03:28,-14.336,0.0,0.0
10:03:28,-122.976,0.0,0.0
10:03:28,-6.915,0.0,0.0
10:03:28,-83.822,0.0,0.0
10:03:28,-73.549,0.0,0.0
10:03:28,-12.55,0.0,0.0
10:03:28,-121.743,0.0,0.0
10:03:28,-6.174,0.0,0.0
10:03:28,-82.274,0.0,0.0
10:03:28,-72.909,0.0,0.0
10:03:28,-11.028,0.0,0.0
10:03:28,-120.329,0.0,0.0
10:03:28,-5.022,0.0,0.0
10:03:28,-80.182,0.0,0.0
10:03:28,-71.302,0.0,0.0
10:03:28,-8.693,0.0,0.0
10:03:28,-118.217,0.0,0.0
10:03:28,-3.204,0.0,0.0
10:03:28,-77.929,0.0,0.0
10:03:28,-70.235,0.0,0.0
10:03:28,-7.051,0.0,0.0
10:03:28,-117.101,0.0,0.0
10:03:28,-2.641,0.0,0.0
10:03:28,-77.038,0.0,0.0
10:03:28,-70.932,0.0,0.0
10:03:28,-7.566,0.0,0.0
10:03:28,-118.636,0.0,0.0
10:03:28,-4.972,0.0,0.0
10:03:28,-79.26,0.0,0.0
10:03:28,-74.396,0.0,0.0
10:03:28,-10.116,0.0,0.0
10:03:28,-121.23,0.0,0.0
10:03:28,-7.593,0.0,0.0
10:03:28,-80.844,0.0,0.0
10:03:28,-76.318,0.0,0.0
10:03:28,-11.162,0.0,0.0
10:03:28,-122.347,0.0,0.0
10:03:28,-8.674,0.0,0.0
10:03:28,-80.786,0.0,0.0
10:03:28,-77.154,0.0,0.0
10:03:28,-10.936,0.0,0.0
10:03:28,-122.379,0.0,0.0
10:03:28,-8.772,0.0,0.0
10:03:28,-79.966,0.0,0.0
10:03:28,-77.237,0.0,0.0
10:03:28,-10.319,0.0,0.0
10:03:28,-121.952,0.0,0.0
10:03:28,-8.858,0.0,0.0
10:03:28,-79.316,0.0,0.0
10:03:28,-77.546,0.0,0.0
10:03:28,-9.822,0.0,0.0
10:03:28,-121.777,0.0,0.0
10:03:28,-8.989,0.0,0.0
10:03:28,-78.877,0.0,0.0
10:03:28,-78.175,0.0,0.0
10:03:28,-9.79,0.0,0.0
10:03:28,-122.104,0.0,0.0
10:03:28,-9.789,0.0,0.0
10:03:28,-78.845,0.0,0.0
10:03:28,-79.127,0.0,0.0
10:03:28,-10.142,0.0,0.0
10:03:28,-122.542,0.0,0.0
10:03:28,-10.461,0.0,0.0
10:03:28,-78.678,0.0,0.0
10:03:28,-79.612,0.0,0.0
10:03:28,-9.956,0.0,0.0
10:03:28,-122.501,0.0,0.0
10:03:28,-10.541,0.0,0.0
10:03:28,-77.909,0.0,0.0
10:03:28,-78.719,0.0,0.0
10:03:28,-7.337,0.0,0.0
10:03:28,-119.999,0.0,0.0
10:03:28,-8.241,0.0,0.0
10:03:28,-73.319,0.0,0.0
10:03:28,-75.849,0.0,0.0
10:03:28,-5.552,0.0,0.0
10:03:29,-118.842,0.0,0.0
10:03:29,-8.667,0.0,0.0
10:03:29,-76.017,0.0,0.0
10:03:29,-80.447,0.0,0.0
10:03:29,-9.389,0.0,0.0
10:03:29,-123.131,0.0,0.0
10:03:29,-12.715,0.0,0.0
10:03:29,-78.137,0.0,0.0
10:03:29,-82.779,0.0,0.0
10:03:29,-10.283,0.0,0.0
10:03:29,-123.536,0.0,0.0
10:03:29,-13.03,0.0,0.0
10:03:29,-75.801,0.0,0.0
10:03:29,-75.232,0.0,0.0
10:03:29,2.221,0.0,0.0
10:03:29,-116.155,0.0,0.0
10:03:29,-16.177,0.0,0.0
10:03:29,-91.758,0.0,0.0
10:03:29,-101.046,0.0,0.0
10:03:29,-18.543,0.0,0.0
10:03:29,-126.567,0.0,0.0
10:03:29,-14.282,0.0,0.0
10:03:29,-75.879,0.0,0.0
10:03:29,-82.646,0.0,0.0
10:03:29,-7.987,0.0,0.0
10:03:29,-122.044,0.0,0.0
10:03:29,-12.197,0.0,0.0
10:03:29,-74.089,0.0,0.0
10:03:29,-82.085,0.0,0.0
10:03:29,-6.559,0.0,0.0
10:03:29,-120.41,0.0,0.0
10:03:29,-10.989,0.0,0.0
10:03:29,-71.922,0.0,0.0
10:03:29,-80.755,0.0,0.0
10:03:29,-4.805,0.0,0.0
10:03:29,-118.784,0.0,0.0
10:03:29,-9.694,0.0,0.0
10:03:29,-69.906,0.0,0.0
10:03:29,-79.442,0.0,0.0
10:03:29,-2.42,0.0,0.0
10:03:29,-116.808,0.0,0.0
10:03:29,-7.982,0.0,0.0
10:03:29,-67.651,0.0,0.0
10:03:29,-78.783,0.0,0.0
10:03:29,-1.598,0.0,0.0
10:03:29,-116.661,0.0,0.0
10:03:29,-8.696,0.0,0.0
10:03:29,-68.08,0.0,0.0
10:03:29,-80.677,0.0,0.0
10:03:29,-3.513,0.0,0.0
10:03:29,-119.094,0.0,0.0
10:03:29,-11.836,0.0,0.0
10:03:29,-70.679,0.0,0.0
10:03:29,-84.049,0.0,0.0
10:03:29,-5.533,0.0,0.0
10:03:29,-121.343,0.0,0.0
10:03:29,-13.936,0.0,0.0
10:03:29,-71.267,0.0,0.0
10:03:29,-85.437,0.0,0.0
10:03:29,-5.848,0.0,0.0
10:03:29,-121.669,0.0,0.0
10:03:29,-14.334,0.0,0.0
10:03:29,-70.764,0.0,0.0
10:03:29,-85.832,0.0,0.0
10:03:29,-5.461,0.0,0.0
10:03:29,-121.261,0.0,0.0
10:03:29,-14.249,0.0,0.0
10:03:29,-69.938,0.0,0.0
10:03:29,-85.826,0.0,0.0
10:03:29,-4.796,0.0,0.0
10:03:29,-121.119,0.0,0.0
10:03:29,-14.496,0.0,0.0
10:03:29,-69.506,0.0,0.0
