TimeStramp,ECG,SpO2,Respiration
11:19:38,728944.0,0.0,0.0
11:19:39,728939.0,0.0,0.0
11:19:39,729039.0,0.0,0.0
11:19:39,729003.0,0.0,0.0
11:19:39,729080.0,0.0,0.0
11:19:39,729059.0,0.0,0.0
11:19:39,729028.0,0.0,0.0
11:19:39,729101.0,0.0,0.0
11:19:39,729053.0,0.0,0.0
11:19:39,729173.0,0.0,0.0
11:19:39,729137.0,0.0,0.0
11:19:39,729119.0,0.0,0.0
11:19:39,729221.0,0.0,0.0
11:19:39,729173.0,0.0,0.0
11:19:39,729274.0,0.0,0.0
11:19:39,729265.0,0.0,0.0
11:19:39,729269.0,0.0,0.0
11:19:39,729327.0,0.0,0.0
11:19:39,729243.0,0.0,0.0
11:19:39,729384.0,0.0,0.0
11:19:39,729353.0,0.0,0.0
11:19:39,729317.0,0.0,0.0
11:19:39,729426.0,0.0,0.0
11:19:39,729342.0,0.0,0.0
11:19:39,729407.0,0.0,0.0
11:19:39,729404.0,0.0,0.0
11:19:39,729428.0,0.0,0.0
11:19:39,729503.0,0.0,0.0
11:19:39,729442.0,0.0,0.0
11:19:39,729543.0,0.0,0.0
11:19:39,729498.0,0.0,0.0
11:19:39,729477.0,0.0,0.0
11:19:39,729574.0,0.0,0.0
11:19:39,729492.0,0.0,0.0
11:19:39,729570.0,0.0,0.0
11:19:39,729528.0,0.0,0.0
11:19:39,729528.0,0.0,0.0
11:19:39,729594.0,0.0,0.0
11:19:39,729554.0,0.0,0.0
11:19:39,729646.0,0.0,0.0
11:19:39,729626.0,0.0,0.0
11:19:39,729623.0,0.0,0.0
11:19:39,729688.0,0.0,0.0
11:19:39,729628.0,0.0,0.0
11:19:39,729706.0,0.0,0.0
11:19:39,729642.0,0.0,0.0
11:19:39,729700.0,0.0,0.0
11:19:39,729812.0,0.0,0.0
11:19:39,729740.0,0.0,0.0
11:19:39,729826.0,0.0,0.0
11:19:39,729772.0,0.0,0.0
11:19:39,729766.0,0.0,0.0
11:19:39,729879.0,0.0,0.0
11:19:39,729789.0,0.0,0.0
11:19:39,729878.0,0.0,0.0
11:19:39,729886.0,0.0,0.0
11:19:39,729888.0,0.0,0.0
11:19:39,729947.0,0.0,0.0
11:19:39,729890.0,0.0,0.0
11:19:39,730024.0,0.0,0.0
11:19:39,729999.0,0.0,0.0
11:19:39,729918.0,0.0,0.0
11:19:39,730021.0,0.0,0.0
11:19:39,729984.0,0.0,0.0
11:19:39,730058.0,0.0,0.0
11:19:39,730003.0,0.0,0.0
11:19:39,730029.0,0.0,0.0
11:19:39,730096.0,0.0,0.0
11:19:39,730046.0,0.0,0.0
11:19:39,730149.0,0.0,0.0
11:19:39,730088.0,0.0,0.0
11:19:39,730068.0,0.0,0.0
11:19:39,730148.0,0.0,0.0
11:19:39,730104.0,0.0,0.0
11:19:39,730208.0,0.0,0.0
11:19:39,730145.0,0.0,0.0
11:19:39,730158.0,0.0,0.0
11:19:39,730224.0,0.0,0.0
11:19:39,730162.0,0.0,0.0
11:19:39,730253.0,0.0,0.0
11:19:39,730201.0,0.0,0.0
11:19:39,730212.0,0.0,0.0
11:19:39,730272.0,0.0,0.0
11:19:39,730207.0,0.0,0.0
11:19:39,730288.0,0.0,0.0
11:19:39,730243.0,0.0,0.0
11:19:39,730218.0,0.0,0.0
11:19:39,730169.0,0.0,0.0
11:19:39,730188.0,0.0,0.0
11:19:39,730443.0,0.0,0.0
11:19:39,730423.0,0.0,0.0
11:19:39,730363.0,0.0,0.0
11:19:39,730394.0,0.0,0.0
11:19:39,730299.0,0.0,0.0
11:19:39,730366.0,0.0,0.0
11:19:39,730305.0,0.0,0.0
11:19:39,730304.0,0.0,0.0
11:19:39,730346.0,0.0,0.0
11:19:39,730289.0,0.0,0.0
11:19:39,730364.0,0.0,0.0
11:19:39,730313.0,0.0,0.0
11:19:39,730324.0,0.0,0.0
11:19:39,730346.0,0.0,0.0
11:19:39,730296.0,0.0,0.0
11:19:39,730401.0,0.0,0.0
11:19:39,730333.0,0.0,0.0
11:19:39,730338.0,0.0,0.0
11:19:39,730393.0,0.0,0.0
11:19:39,730309.0,0.0,0.0
11:19:39,730406.0,0.0,0.0
11:19:39,730355.0,0.0,0.0
11:19:39,730365.0,0.0,0.0
11:19:39,730413.0,0.0,0.0
11:19:39,730342.0,0.0,0.0
11:19:39,730422.0,0.0,0.0
11:19:39,730367.0,0.0,0.0
11:19:39,730369.0,0.0,0.0
11:19:39,730418.0,0.0,0.0
11:19:39,730336.0,0.0,0.0
11:19:39,730433.0,0.0,0.0
11:19:39,730396.0,0.0,0.0
11:19:39,730380.0,0.0,0.0
11:19:39,730404.0,0.0,0.0
11:19:39,730323.0,0.0,0.0
11:19:39,730429.0,0.0,0.0
11:19:39,730369.0,0.0,0.0
11:19:40,730396.0,0.0,0.0
11:19:40,730401.0,0.0,0.0
11:19:40,730325.0,0.0,0.0
11:19:40,730388.0,0.0,0.0
11:19:40,730338.0,0.0,0.0
11:19:40,730373.0,0.0,0.0
11:19:40,730396.0,0.0,0.0
11:19:40,730318.0,0.0,0.0
11:19:40,730406.0,0.0,0.0
11:19:40,730354.0,0.0,0.0
11:19:40,730376.0,0.0,0.0
11:19:40,730403.0,0.0,0.0
11:19:40,730349.0,0.0,0.0
11:19:40,730418.0,0.0,0.0
11:19:40,730329.0,0.0,0.0
11:19:40,730341.0,0.0,0.0
11:19:40,730379.0,0.0,0.0
11:19:40,730295.0,0.0,0.0
11:19:40,730388.0,0.0,0.0
11:19:40,730316.0,0.0,0.0
11:19:40,730351.0,0.0,0.0
11:19:40,730367.0,0.0,0.0
11:19:40,730303.0,0.0,0.0
11:19:40,730374.0,0.0,0.0
11:19:40,730324.0,0.0,0.0
11:19:40,730348.0,0.0,0.0
11:19:40,730364.0,0.0,0.0
11:19:40,730283.0,0.0,0.0
11:19:40,730361.0,0.0,0.0
11:19:40,730309.0,0.0,0.0
11:19:40,730336.0,0.0,0.0
11:19:40,730404.0,0.0,0.0
11:19:40,730331.0,0.0,0.0
11:19:40,730388.0,0.0,0.0
11:19:40,730281.0,0.0,0.0
11:19:40,730323.0,0.0,0.0
11:19:40,730366.0,0.0,0.0
11:19:40,730298.0,0.0,0.0
11:19:40,730388.0,0.0,0.0
11:19:40,730305.0,0.0,0.0
11:19:40,730319.0,0.0,0.0
11:19:40,730334.0,0.0,0.0
11:19:40,730278.0,0.0,0.0
11:19:40,730354.0,0.0,0.0
11:19:40,730299.0,0.0,0.0
11:19:40,730332.0,0.0,0.0
11:19:40,730343.0,0.0,0.0
11:19:40,730285.0,0.0,0.0
11:19:40,730363.0,0.0,0.0
11:19:40,730298.0,0.0,0.0
11:19:40,730327.0,0.0,0.0
11:19:40,730338.0,0.0,0.0
11:19:40,730281.0,0.0,0.0
11:19:40,730306.0,0.0,0.0
11:19:40,730240.0,0.0,0.0
11:19:40,730312.0,0.0,0.0
11:19:40,730351.0,0.0,0.0
11:19:40,730259.0,0.0,0.0
11:19:40,730322.0,0.0,0.0
11:19:40,730314.0,0.0,0.0
11:19:40,730360.0,0.0,0.0
11:19:40,730363.0,0.0,0.0
11:19:40,730310.0,0.0,0.0
11:19:40,730406.0,0.0,0.0
11:19:40,730324.0,0.0,0.0
11:19:40,730350.0,0.0,0.0
11:19:40,730412.0,0.0,0.0
11:19:40,730343.0,0.0,0.0
11:19:40,730438.0,0.0,0.0
11:19:40,730370.0,0.0,0.0
11:19:40,730383.0,0.0,0.0
11:19:40,730433.0,0.0,0.0
11:19:40,730363.0,0.0,0.0
11:19:40,730461.0,0.0,0.0
11:19:40,730406.0,0.0,0.0
11:19:40,730447.0,0.0,0.0
11:19:40,730487.0,0.0,0.0
11:19:40,730426.0,0.0,0.0
11:19:40,730483.0,0.0,0.0
11:19:40,730507.0,0.0,0.0
11:19:40,730715.0,0.0,0.0
11:19:40,730772.0,0.0,0.0
11:19:40,730645.0,0.0,0.0
11:19:40,730728.0,0.0,0.0
11:19:40,730679.0,0.0,0.0
11:19:40,730729.0,0.0,0.0
11:19:40,730764.0,0.0,0.0
11:19:40,730708.0,0.0,0.0
11:19:40,730802.0,0.0,0.0
11:19:40,730731.0,0.0,0.0
11:19:40,730704.0,0.0,0.0
11:19:40,730685.0,0.0,0.0
11:19:40,730611.0,0.0,0.0
11:19:40,730695.0,0.0,0.0
11:19:40,730709.0,0.0,0.0
11:19:40,730857.0,0.0,0.0
11:19:40,730897.0,0.0,0.0
11:19:40,730690.0,0.0,0.0
11:19:40,730651.0,0.0,0.0
11:19:40,730613.0,0.0,0.0
11:19:40,730767.0,0.0,0.0
11:19:40,730862.0,0.0,0.0
11:19:40,730783.0,0.0,0.0
11:19:40,730833.0,0.0,0.0
11:19:40,730719.0,0.0,0.0
11:19:40,730698.0,0.0,0.0
11:19:40,730674.0,0.0,0.0
11:19:40,730593.0,0.0,0.0
11:19:40,730698.0,0.0,0.0
11:19:40,730595.0,0.0,0.0
11:19:40,730606.0,0.0,0.0
11:19:40,730592.0,0.0,0.0
11:19:40,730479.0,0.0,0.0
11:19:40,730542.0,0.0,0.0
11:19:40,730441.0,0.0,0.0
11:19:40,730393.0,0.0,0.0
11:19:40,730394.0,0.0,0.0
11:19:40,730364.0,0.0,0.0
11:19:40,730434.0,0.0,0.0
11:19:40,730293.0,0.0,0.0
11:19:40,730284.0,0.0,0.0
11:19:40,730306.0,0.0,0.0
11:19:40,730183.0,0.0,0.0
11:19:40,730203.0,0.0,0.0
11:19:41,730096.0,0.0,0.0
11:19:41,730141.0,0.0,0.0
11:19:41,730149.0,0.0,0.0
11:19:41,730074.0,0.0,0.0
11:19:41,730184.0,0.0,0.0
11:19:41,730103.0,0.0,0.0
11:19:41,730051.0,0.0,0.0
11:19:41,729969.0,0.0,0.0
11:19:41,729806.0,0.0,0.0
11:19:41,729868.0,0.0,0.0
11:19:41,729739.0,0.0,0.0
11:19:41,729742.0,0.0,0.0
11:19:41,729776.0,0.0,0.0
11:19:41,729710.0,0.0,0.0
11:19:41,729705.0,0.0,0.0
11:19:41,729543.0,0.0,0.0
11:19:41,729578.0,0.0,0.0
11:19:41,729591.0,0.0,0.0
11:19:41,729488.0,0.0,0.0
11:19:41,729584.0,0.0,0.0
11:19:41,729468.0,0.0,0.0
11:19:41,729480.0,0.0,0.0
11:19:41,729483.0,0.0,0.0
11:19:41,729368.0,0.0,0.0
11:19:41,729420.0,0.0,0.0
11:19:41,729324.0,0.0,0.0
11:19:41,729312.0,0.0,0.0
11:19:41,729259.0,0.0,0.0
11:19:41,729171.0,0.0,0.0
11:19:41,729209.0,0.0,0.0
11:19:41,729121.0,0.0,0.0
11:19:41,729141.0,0.0,0.0
11:19:41,729081.0,0.0,0.0
11:19:41,728968.0,0.0,0.0
11:19:41,728938.0,0.0,0.0
11:19:41,728783.0,0.0,0.0
11:19:41,728824.0,0.0,0.0
11:19:41,728772.0,0.0,0.0
11:19:41,728713.0,0.0,0.0
11:19:41,728774.0,0.0,0.0
11:19:41,728645.0,0.0,0.0
11:19:41,728665.0,0.0,0.0
11:19:41,728659.0,0.0,0.0
11:19:41,728590.0,0.0,0.0
11:19:41,728634.0,0.0,0.0
11:19:41,728514.0,0.0,0.0
11:19:41,728543.0,0.0,0.0
11:19:41,728483.0,0.0,0.0
11:19:41,728393.0,0.0,0.0
11:19:41,728446.0,0.0,0.0
11:19:41,728307.0,0.0,0.0
11:19:41,728351.0,0.0,0.0
11:19:41,728330.0,0.0,0.0
11:19:41,728240.0,0.0,0.0
11:19:41,728286.0,0.0,0.0
11:19:41,728164.0,0.0,0.0
11:19:41,728214.0,0.0,0.0
11:19:41,728189.0,0.0,0.0
11:19:41,728100.0,0.0,0.0
11:19:41,728124.0,0.0,0.0
11:19:41,728026.0,0.0,0.0
11:19:41,728043.0,0.0,0.0
11:19:41,728015.0,0.0,0.0
11:19:41,727906.0,0.0,0.0
11:19:41,727963.0,0.0,0.0
11:19:41,727858.0,0.0,0.0
11:19:41,727905.0,0.0,0.0
11:19:41,727909.0,0.0,0.0
11:19:41,727843.0,0.0,0.0
11:19:41,727898.0,0.0,0.0
11:19:41,727756.0,0.0,0.0
11:19:41,727758.0,0.0,0.0
11:19:41,727706.0,0.0,0.0
11:19:41,727589.0,0.0,0.0
11:19:41,727716.0,0.0,0.0
11:19:41,727748.0,0.0,0.0
11:19:41,727873.0,0.0,0.0
11:19:41,727773.0,0.0,0.0
11:19:41,727671.0,0.0,0.0
11:19:41,727734.0,0.0,0.0
11:19:41,727579.0,0.0,0.0
11:19:41,727607.0,0.0,0.0
11:19:41,727566.0,0.0,0.0
11:19:41,727464.0,0.0,0.0
11:19:41,727518.0,0.0,0.0
11:19:41,727404.0,0.0,0.0
11:19:41,727435.0,0.0,0.0
11:19:41,727384.0,0.0,0.0
11:19:41,727273.0,0.0,0.0
11:19:41,727370.0,0.0,0.0
11:19:41,727349.0,0.0,0.0
11:19:41,727409.0,0.0,0.0
11:19:41,727342.0,0.0,0.0
11:19:41,727254.0,0.0,0.0
11:19:41,727307.0,0.0,0.0
11:19:41,727200.0,0.0,0.0
11:19:41,727251.0,0.0,0.0
11:19:41,727245.0,0.0,0.0
11:19:41,727191.0,0.0,0.0
11:19:41,727224.0,0.0,0.0
11:19:41,727031.0,0.0,0.0
11:19:41,727006.0,0.0,0.0
11:19:41,726949.0,0.0,0.0
11:19:41,726998.0,0.0,0.0
11:19:41,727128.0,0.0,0.0
11:19:41,727041.0,0.0,0.0
11:19:41,727089.0,0.0,0.0
11:19:41,727073.0,0.0,0.0
11:19:41,726995.0,0.0,0.0
11:19:41,727088.0,0.0,0.0
11:19:41,726997.0,0.0,0.0
11:19:41,727041.0,0.0,0.0
11:19:41,727005.0,0.0,0.0
11:19:41,726897.0,0.0,0.0
11:19:41,726969.0,0.0,0.0
11:19:41,726854.0,0.0,0.0
11:19:41,726905.0,0.0,0.0
11:19:41,726862.0,0.0,0.0
11:19:41,726845.0,0.0,0.0
11:19:41,726955.0,0.0,0.0
11:19:41,726856.0,0.0,0.0
11:19:41,726892.0,0.0,0.0
11:19:41,726861.0,0.0,0.0
11:19:41,726799.0,0.0,0.0
11:19:41,726819.0,0.0,0.0
11:19:41,726728.0,0.0,0.0
11:19:42,726776.0,0.0,0.0
11:19:42,726743.0,0.0,0.0
11:19:42,726680.0,0.0,0.0
11:19:42,726723.0,0.0,0.0
11:19:42,726569.0,0.0,0.0
11:19:42,726639.0,0.0,0.0
11:19:42,726624.0,0.0,0.0
11:19:42,726578.0,0.0,0.0
11:19:42,726659.0,0.0,0.0
11:19:42,726548.0,0.0,0.0
11:19:42,726592.0,0.0,0.0
11:19:42,726576.0,0.0,0.0
11:19:42,726568.0,0.0,0.0
11:19:42,726639.0,0.0,0.0
11:19:42,726505.0,0.0,0.0
11:19:42,726550.0,0.0,0.0
11:19:42,726501.0,0.0,0.0
11:19:42,726456.0,0.0,0.0
11:19:42,726540.0,0.0,0.0
11:19:42,726459.0,0.0,0.0
11:19:42,726527.0,0.0,0.0
11:19:42,726519.0,0.0,0.0
11:19:42,726476.0,0.0,0.0
11:19:42,726558.0,0.0,0.0
11:19:42,726406.0,0.0,0.0
11:19:42,726474.0,0.0,0.0
11:19:42,726458.0,0.0,0.0
11:19:42,726403.0,0.0,0.0
11:19:42,726502.0,0.0,0.0
11:19:42,726397.0,0.0,0.0
11:19:42,726469.0,0.0,0.0
11:19:42,726439.0,0.0,0.0
11:19:42,726403.0,0.0,0.0
11:19:42,726468.0,0.0,0.0
11:19:42,726384.0,0.0,0.0
11:19:42,726445.0,0.0,0.0
11:19:42,726411.0,0.0,0.0
11:19:42,726358.0,0.0,0.0
11:19:42,726418.0,0.0,0.0
11:19:42,726356.0,0.0,0.0
11:19:42,726441.0,0.0,0.0
11:19:42,726397.0,0.0,0.0
11:19:42,726389.0,0.0,0.0
11:19:42,726476.0,0.0,0.0
11:19:42,726372.0,0.0,0.0
11:19:42,726429.0,0.0,0.0
11:19:42,726373.0,0.0,0.0
11:19:42,726333.0,0.0,0.0
11:19:42,726383.0,0.0,0.0
11:19:42,726249.0,0.0,0.0
11:19:42,726329.0,0.0,0.0
11:19:42,726287.0,0.0,0.0
11:19:42,726240.0,0.0,0.0
11:19:42,726318.0,0.0,0.0
11:19:42,726234.0,0.0,0.0
11:19:42,726327.0,0.0,0.0
11:19:42,726282.0,0.0,0.0
11:19:42,726263.0,0.0,0.0
11:19:42,726317.0,0.0,0.0
11:19:42,726207.0,0.0,0.0
11:19:42,726288.0,0.0,0.0
11:19:42,726238.0,0.0,0.0
11:19:42,726193.0,0.0,0.0
11:19:42,726261.0,0.0,0.0
11:19:42,726132.0,0.0,0.0
11:19:42,726165.0,0.0,0.0
11:19:42,726130.0,0.0,0.0
11:19:42,726261.0,0.0,0.0
11:19:42,726448.0,0.0,0.0
11:19:42,726309.0,0.0,0.0
11:19:42,726306.0,0.0,0.0
11:19:42,726228.0,0.0,0.0
11:19:42,726206.0,0.0,0.0
11:19:42,726292.0,0.0,0.0
11:19:42,726202.0,0.0,0.0
11:19:42,726306.0,0.0,0.0
11:19:42,726256.0,0.0,0.0
11:19:42,726243.0,0.0,0.0
11:19:42,726310.0,0.0,0.0
11:19:42,726231.0,0.0,0.0
11:19:42,726302.0,0.0,0.0
11:19:42,726269.0,0.0,0.0
11:19:42,726284.0,0.0,0.0
11:19:42,726361.0,0.0,0.0
11:19:42,726265.0,0.0,0.0
11:19:42,726326.0,0.0,0.0
11:19:42,726266.0,0.0,0.0
11:19:42,726272.0,0.0,0.0
11:19:42,726304.0,0.0,0.0
11:19:42,726179.0,0.0,0.0
11:19:42,726289.0,0.0,0.0
11:19:42,726214.0,0.0,0.0
11:19:42,726193.0,0.0,0.0
11:19:42,726288.0,0.0,0.0
11:19:42,726201.0,0.0,0.0
11:19:42,726319.0,0.0,0.0
11:19:42,726279.0,0.0,0.0
11:19:42,726269.0,0.0,0.0
11:19:42,726365.0,0.0,0.0
11:19:42,726274.0,0.0,0.0
11:19:42,726386.0,0.0,0.0
11:19:42,726345.0,0.0,0.0
11:19:42,726343.0,0.0,0.0
11:19:42,726393.0,0.0,0.0
11:19:42,726295.0,0.0,0.0
11:19:42,726410.0,0.0,0.0
11:19:42,726349.0,0.0,0.0
11:19:42,726313.0,0.0,0.0
11:19:42,726381.0,0.0,0.0
11:19:42,726304.0,0.0,0.0
11:19:42,726414.0,0.0,0.0
11:19:42,726400.0,0.0,0.0
11:19:42,726378.0,0.0,0.0
11:19:42,726452.0,0.0,0.0
11:19:42,726367.0,0.0,0.0
11:19:42,726481.0,0.0,0.0
11:19:42,726478.0,0.0,0.0
11:19:42,726471.0,0.0,0.0
11:19:42,726502.0,0.0,0.0
11:19:42,726426.0,0.0,0.0
11:19:42,726517.0,0.0,0.0
11:19:42,726477.0,0.0,0.0
11:19:42,726476.0,0.0,0.0
11:19:42,726559.0,0.0,0.0
11:19:42,726489.0,0.0,0.0
11:19:43,726590.0,0.0,0.0
11:19:43,726524.0,0.0,0.0
11:19:43,726523.0,0.0,0.0
11:19:43,726605.0,0.0,0.0
11:19:43,726547.0,0.0,0.0
11:19:43,726650.0,0.0,0.0
11:19:43,726598.0,0.0,0.0
11:19:43,726627.0,0.0,0.0
11:19:43,726698.0,0.0,0.0
11:19:43,726603.0,0.0,0.0
11:19:43,726714.0,0.0,0.0
11:19:43,726681.0,0.0,0.0
11:19:43,726671.0,0.0,0.0
11:19:43,726721.0,0.0,0.0
11:19:43,726708.0,0.0,0.0
11:19:43,726809.0,0.0,0.0
11:19:43,726750.0,0.0,0.0
11:19:43,726798.0,0.0,0.0
11:19:43,726862.0,0.0,0.0
11:19:43,726784.0,0.0,0.0
11:19:43,726908.0,0.0,0.0
11:19:43,726858.0,0.0,0.0
11:19:43,726881.0,0.0,0.0
11:19:43,726917.0,0.0,0.0
11:19:43,726851.0,0.0,0.0
11:19:43,726976.0,0.0,0.0
11:19:43,726916.0,0.0,0.0
11:19:43,726926.0,0.0,0.0
11:19:43,727024.0,0.0,0.0
11:19:43,726959.0,0.0,0.0
11:19:43,727069.0,0.0,0.0
11:19:43,727033.0,0.0,0.0
11:19:43,727059.0,0.0,0.0
11:19:43,727117.0,0.0,0.0
11:19:43,727053.0,0.0,0.0
11:19:43,727177.0,0.0,0.0
11:19:43,727126.0,0.0,0.0
11:19:43,727146.0,0.0,0.0
11:19:43,727214.0,0.0,0.0
11:19:43,727147.0,0.0,0.0
11:19:43,727282.0,0.0,0.0
11:19:43,727236.0,0.0,0.0
11:19:43,727270.0,0.0,0.0
11:19:43,727327.0,0.0,0.0
11:19:43,727253.0,0.0,0.0
11:19:43,727382.0,0.0,0.0
11:19:43,727301.0,0.0,0.0
11:19:43,727322.0,0.0,0.0
11:19:43,727408.0,0.0,0.0
11:19:43,727349.0,0.0,0.0
11:19:43,727464.0,0.0,0.0
11:19:43,727386.0,0.0,0.0
11:19:43,727407.0,0.0,0.0
11:19:43,727491.0,0.0,0.0
11:19:43,727391.0,0.0,0.0
11:19:43,727476.0,0.0,0.0
11:19:43,727391.0,0.0,0.0
11:19:43,727392.0,0.0,0.0
11:19:43,727528.0,0.0,0.0
11:19:43,727589.0,0.0,0.0
11:19:43,727777.0,0.0,0.0
11:19:43,727615.0,0.0,0.0
11:19:43,727566.0,0.0,0.0
11:19:43,727636.0,0.0,0.0
11:19:43,727539.0,0.0,0.0
11:19:43,727649.0,0.0,0.0
11:19:43,727613.0,0.0,0.0
11:19:43,727646.0,0.0,0.0
11:19:43,727684.0,0.0,0.0
11:19:43,727619.0,0.0,0.0
11:19:43,727756.0,0.0,0.0
11:19:43,727693.0,0.0,0.0
11:19:43,727723.0,0.0,0.0
11:19:43,727786.0,0.0,0.0
11:19:43,727725.0,0.0,0.0
11:19:43,727819.0,0.0,0.0
11:19:43,727758.0,0.0,0.0
11:19:43,727788.0,0.0,0.0
11:19:43,727869.0,0.0,0.0
11:19:43,727785.0,0.0,0.0
11:19:43,727883.0,0.0,0.0
11:19:43,727839.0,0.0,0.0
11:19:43,727854.0,0.0,0.0
11:19:43,727889.0,0.0,0.0
11:19:43,727853.0,0.0,0.0
11:19:43,727984.0,0.0,0.0
11:19:43,727881.0,0.0,0.0
11:19:43,727924.0,0.0,0.0
11:19:43,727992.0,0.0,0.0
11:19:43,727917.0,0.0,0.0
11:19:43,728053.0,0.0,0.0
11:19:43,727990.0,0.0,0.0
11:19:43,728038.0,0.0,0.0
11:19:43,728100.0,0.0,0.0
11:19:43,727999.0,0.0,0.0
11:19:43,728124.0,0.0,0.0
11:19:43,728028.0,0.0,0.0
11:19:43,728064.0,0.0,0.0
11:19:43,728139.0,0.0,0.0
11:19:43,728080.0,0.0,0.0
11:19:43,728173.0,0.0,0.0
11:19:43,728106.0,0.0,0.0
11:19:43,728130.0,0.0,0.0
11:19:43,728165.0,0.0,0.0
11:19:43,728101.0,0.0,0.0
11:19:43,728235.0,0.0,0.0
11:19:43,728161.0,0.0,0.0
11:19:43,728193.0,0.0,0.0
11:19:43,728227.0,0.0,0.0
11:19:43,728166.0,0.0,0.0
11:19:43,728288.0,0.0,0.0
11:19:43,728210.0,0.0,0.0
11:19:43,728251.0,0.0,0.0
11:19:43,728296.0,0.0,0.0
11:19:43,728241.0,0.0,0.0
11:19:43,728317.0,0.0,0.0
11:19:43,728246.0,0.0,0.0
11:19:43,728309.0,0.0,0.0
11:19:43,728334.0,0.0,0.0
11:19:43,728276.0,0.0,0.0
11:19:43,728387.0,0.0,0.0
11:19:43,728297.0,0.0,0.0
11:19:43,728356.0,0.0,0.0
11:19:43,728388.0,0.0,0.0
11:19:44,728321.0,0.0,0.0
11:19:44,728436.0,0.0,0.0
11:19:44,728369.0,0.0,0.0
11:19:44,728421.0,0.0,0.0
11:19:44,728468.0,0.0,0.0
11:19:44,728376.0,0.0,0.0
11:19:44,728458.0,0.0,0.0
11:19:44,728367.0,0.0,0.0
11:19:44,728451.0,0.0,0.0
11:19:44,728488.0,0.0,0.0
11:19:44,728431.0,0.0,0.0
11:19:44,728546.0,0.0,0.0
11:19:44,728453.0,0.0,0.0
11:19:44,728500.0,0.0,0.0
11:19:44,728537.0,0.0,0.0
11:19:44,728453.0,0.0,0.0
11:19:44,728559.0,0.0,0.0
11:19:44,728503.0,0.0,0.0
11:19:44,728536.0,0.0,0.0
11:19:44,728576.0,0.0,0.0
11:19:44,728472.0,0.0,0.0
11:19:44,728604.0,0.0,0.0
11:19:44,728523.0,0.0,0.0
11:19:44,728565.0,0.0,0.0
11:19:44,728620.0,0.0,0.0
11:19:44,728534.0,0.0,0.0
11:19:44,728662.0,0.0,0.0
11:19:44,728571.0,0.0,0.0
11:19:44,728614.0,0.0,0.0
11:19:44,728627.0,0.0,0.0
11:19:44,728563.0,0.0,0.0
11:19:44,728681.0,0.0,0.0
11:19:44,728588.0,0.0,0.0
11:19:44,728648.0,0.0,0.0
11:19:44,728663.0,0.0,0.0
11:19:44,728615.0,0.0,0.0
11:19:44,728702.0,0.0,0.0
11:19:44,728588.0,0.0,0.0
11:19:44,728620.0,0.0,0.0
11:19:44,728657.0,0.0,0.0
11:19:44,728595.0,0.0,0.0
11:19:44,728719.0,0.0,0.0
11:19:44,728617.0,0.0,0.0
11:19:44,728652.0,0.0,0.0
11:19:44,728680.0,0.0,0.0
11:19:44,728583.0,0.0,0.0
11:19:44,728626.0,0.0,0.0
11:19:44,728594.0,0.0,0.0
11:19:44,728792.0,0.0,0.0
11:19:44,728903.0,0.0,0.0
11:19:44,728767.0,0.0,0.0
11:19:44,728765.0,0.0,0.0
11:19:44,728664.0,0.0,0.0
11:19:44,728749.0,0.0,0.0
11:19:44,728752.0,0.0,0.0
11:19:44,728644.0,0.0,0.0
11:19:44,728784.0,0.0,0.0
11:19:44,728679.0,0.0,0.0
11:19:44,728729.0,0.0,0.0
11:19:44,728738.0,0.0,0.0
11:19:44,728663.0,0.0,0.0
11:19:44,728774.0,0.0,0.0
11:19:44,728699.0,0.0,0.0
11:19:44,728757.0,0.0,0.0
11:19:44,728768.0,0.0,0.0
11:19:44,728686.0,0.0,0.0
11:19:44,728768.0,0.0,0.0
11:19:44,728683.0,0.0,0.0
11:19:44,728731.0,0.0,0.0
11:19:44,728719.0,0.0,0.0
11:19:44,728651.0,0.0,0.0
11:19:44,728755.0,0.0,0.0
11:19:44,728666.0,0.0,0.0
11:19:44,728721.0,0.0,0.0
11:19:44,728711.0,0.0,0.0
11:19:44,728648.0,0.0,0.0
11:19:44,728762.0,0.0,0.0
11:19:44,728656.0,0.0,0.0
11:19:44,728703.0,0.0,0.0
11:19:44,728695.0,0.0,0.0
11:19:44,728640.0,0.0,0.0
11:19:44,728740.0,0.0,0.0
11:19:44,728647.0,0.0,0.0
11:19:44,728712.0,0.0,0.0
11:19:44,728679.0,0.0,0.0
11:19:44,728636.0,0.0,0.0
11:19:44,728729.0,0.0,0.0
11:19:44,728601.0,0.0,0.0
11:19:44,728633.0,0.0,0.0
11:19:44,728637.0,0.0,0.0
11:19:44,728605.0,0.0,0.0
11:19:44,728712.0,0.0,0.0
11:19:44,728559.0,0.0,0.0
11:19:44,728606.0,0.0,0.0
11:19:44,728635.0,0.0,0.0
11:19:44,728571.0,0.0,0.0
11:19:44,728647.0,0.0,0.0
11:19:44,728553.0,0.0,0.0
11:19:44,728623.0,0.0,0.0
11:19:44,728597.0,0.0,0.0
11:19:44,728544.0,0.0,0.0
11:19:44,728637.0,0.0,0.0
11:19:44,728504.0,0.0,0.0
11:19:44,728597.0,0.0,0.0
11:19:44,728605.0,0.0,0.0
11:19:44,728528.0,0.0,0.0
11:19:44,728601.0,0.0,0.0
11:19:44,728490.0,0.0,0.0
11:19:44,728562.0,0.0,0.0
11:19:44,728545.0,0.0,0.0
11:19:44,728488.0,0.0,0.0
11:19:44,728588.0,0.0,0.0
11:19:44,728465.0,0.0,0.0
11:19:44,728528.0,0.0,0.0
11:19:44,728504.0,0.0,0.0
11:19:44,728456.0,0.0,0.0
11:19:44,728542.0,0.0,0.0
11:19:44,728449.0,0.0,0.0
11:19:44,728523.0,0.0,0.0
11:19:44,728504.0,0.0,0.0
11:19:44,728472.0,0.0,0.0
11:19:44,728564.0,0.0,0.0
11:19:44,728449.0,0.0,0.0
11:19:44,728498.0,0.0,0.0
11:19:44,728519.0,0.0,0.0
11:19:45,728439.0,0.0,0.0
11:19:45,728513.0,0.0,0.0
11:19:45,728391.0,0.0,0.0
11:19:45,728452.0,0.0,0.0
11:19:45,728452.0,0.0,0.0
11:19:45,728396.0,0.0,0.0
11:19:45,728469.0,0.0,0.0
11:19:45,728366.0,0.0,0.0
11:19:45,728425.0,0.0,0.0
11:19:45,728413.0,0.0,0.0
11:19:45,728359.0,0.0,0.0
11:19:45,728458.0,0.0,0.0
11:19:45,728348.0,0.0,0.0
11:19:45,728403.0,0.0,0.0
11:19:45,728369.0,0.0,0.0
11:19:45,728298.0,0.0,0.0
11:19:45,728373.0,0.0,0.0
11:19:45,728266.0,0.0,0.0
11:19:45,728374.0,0.0,0.0
11:19:45,728321.0,0.0,0.0
11:19:45,728244.0,0.0,0.0
11:19:45,728355.0,0.0,0.0
11:19:45,728259.0,0.0,0.0
11:19:45,728308.0,0.0,0.0
11:19:45,728290.0,0.0,0.0
11:19:45,728244.0,0.0,0.0
11:19:45,728324.0,0.0,0.0
11:19:45,728211.0,0.0,0.0
11:19:45,728263.0,0.0,0.0
11:19:45,728236.0,0.0,0.0
11:19:45,728141.0,0.0,0.0
11:19:45,728165.0,0.0,0.0
11:19:45,728068.0,0.0,0.0
11:19:45,728269.0,0.0,0.0
11:19:45,728381.0,0.0,0.0
11:19:45,728234.0,0.0,0.0
11:19:45,728251.0,0.0,0.0
11:19:45,728139.0,0.0,0.0
11:19:45,728208.0,0.0,0.0
11:19:45,728178.0,0.0,0.0
11:19:45,728124.0,0.0,0.0
11:19:45,728206.0,0.0,0.0
11:19:45,728093.0,0.0,0.0
11:19:45,728145.0,0.0,0.0
11:19:45,728111.0,0.0,0.0
11:19:45,728031.0,0.0,0.0
11:19:45,728101.0,0.0,0.0
11:19:45,728014.0,0.0,0.0
11:19:45,728133.0,0.0,0.0
11:19:45,728089.0,0.0,0.0
11:19:45,728033.0,0.0,0.0
11:19:45,728114.0,0.0,0.0
11:19:45,727976.0,0.0,0.0
11:19:45,728018.0,0.0,0.0
11:19:45,727997.0,0.0,0.0
11:19:45,727951.0,0.0,0.0
11:19:45,728030.0,0.0,0.0
11:19:45,727897.0,0.0,0.0
11:19:45,727958.0,0.0,0.0
11:19:45,727950.0,0.0,0.0
11:19:45,727926.0,0.0,0.0
11:19:45,728002.0,0.0,0.0
11:19:45,727911.0,0.0,0.0
11:19:45,727974.0,0.0,0.0
11:19:45,727924.0,0.0,0.0
11:19:45,727887.0,0.0,0.0
11:19:45,728011.0,0.0,0.0
11:19:45,727883.0,0.0,0.0
11:19:45,727975.0,0.0,0.0
11:19:45,727919.0,0.0,0.0
11:19:45,727872.0,0.0,0.0
11:19:45,727931.0,0.0,0.0
11:19:45,727825.0,0.0,0.0
11:19:45,727922.0,0.0,0.0
11:19:45,727838.0,0.0,0.0
11:19:45,727767.0,0.0,0.0
11:19:45,727839.0,0.0,0.0
11:19:45,727756.0,0.0,0.0
11:19:45,727852.0,0.0,0.0
11:19:45,727805.0,0.0,0.0
11:19:45,727751.0,0.0,0.0
11:19:45,727840.0,0.0,0.0
11:19:45,727736.0,0.0,0.0
11:19:45,727816.0,0.0,0.0
11:19:45,727763.0,0.0,0.0
11:19:45,727703.0,0.0,0.0
11:19:45,727787.0,0.0,0.0
11:19:45,727687.0,0.0,0.0
11:19:45,727738.0,0.0,0.0
11:19:45,727703.0,0.0,0.0
11:19:45,727685.0,0.0,0.0
11:19:45,727749.0,0.0,0.0
11:19:45,727631.0,0.0,0.0
11:19:45,727725.0,0.0,0.0
11:19:45,727636.0,0.0,0.0
11:19:45,727623.0,0.0,0.0
11:19:45,727714.0,0.0,0.0
11:19:45,727558.0,0.0,0.0
11:19:45,727649.0,0.0,0.0
11:19:45,727629.0,0.0,0.0
11:19:45,727606.0,0.0,0.0
11:19:45,727677.0,0.0,0.0
11:19:45,727538.0,0.0,0.0
11:19:45,727614.0,0.0,0.0
11:19:45,727567.0,0.0,0.0
11:19:45,727546.0,0.0,0.0
11:19:45,727631.0,0.0,0.0
11:19:45,727524.0,0.0,0.0
11:19:45,727602.0,0.0,0.0
11:19:45,727548.0,0.0,0.0
11:19:45,727514.0,0.0,0.0
11:19:45,727567.0,0.0,0.0
11:19:45,727434.0,0.0,0.0
11:19:45,727548.0,0.0,0.0
11:19:45,727482.0,0.0,0.0
11:19:45,727451.0,0.0,0.0
11:19:45,727502.0,0.0,0.0
11:19:45,727420.0,0.0,0.0
11:19:45,727516.0,0.0,0.0
11:19:45,727449.0,0.0,0.0
11:19:45,727426.0,0.0,0.0
11:19:45,727489.0,0.0,0.0
11:19:45,727369.0,0.0,0.0
11:19:45,727464.0,0.0,0.0
11:19:45,727409.0,0.0,0.0
11:19:46,727377.0,0.0,0.0
11:19:46,727439.0,0.0,0.0
11:19:46,727333.0,0.0,0.0
11:19:46,727406.0,0.0,0.0
11:19:46,727331.0,0.0,0.0
11:19:46,727308.0,0.0,0.0
11:19:46,727398.0,0.0,0.0
11:19:46,727288.0,0.0,0.0
11:19:46,727378.0,0.0,0.0
11:19:46,727304.0,0.0,0.0
11:19:46,727299.0,0.0,0.0
11:19:46,727351.0,0.0,0.0
11:19:46,727227.0,0.0,0.0
11:19:46,727336.0,0.0,0.0
11:19:46,727262.0,0.0,0.0
11:19:46,727238.0,0.0,0.0
11:19:46,727273.0,0.0,0.0
11:19:46,727142.0,0.0,0.0
11:19:46,727203.0,0.0,0.0
11:19:46,727101.0,0.0,0.0
11:19:46,727126.0,0.0,0.0
11:19:46,727328.0,0.0,0.0
11:19:46,727309.0,0.0,0.0
11:19:46,727341.0,0.0,0.0
11:19:46,727182.0,0.0,0.0
11:19:46,727181.0,0.0,0.0
11:19:46,727224.0,0.0,0.0
11:19:46,727108.0,0.0,0.0
11:19:46,727175.0,0.0,0.0
11:19:46,727136.0,0.0,0.0
11:19:46,727121.0,0.0,0.0
11:19:46,727144.0,0.0,0.0
11:19:46,727059.0,0.0,0.0
11:19:46,727141.0,0.0,0.0
11:19:46,727062.0,0.0,0.0
11:19:46,727016.0,0.0,0.0
11:19:46,727109.0,0.0,0.0
11:19:46,727002.0,0.0,0.0
11:19:46,727112.0,0.0,0.0
11:19:46,727040.0,0.0,0.0
11:19:46,726999.0,0.0,0.0
11:19:46,727053.0,0.0,0.0
11:19:46,726954.0,0.0,0.0
11:19:46,727058.0,0.0,0.0
11:19:46,726984.0,0.0,0.0
11:19:46,726956.0,0.0,0.0
11:19:46,726997.0,0.0,0.0
11:19:46,726931.0,0.0,0.0
11:19:46,727019.0,0.0,0.0
11:19:46,726934.0,0.0,0.0
11:19:46,726925.0,0.0,0.0
11:19:46,726964.0,0.0,0.0
11:19:46,726873.0,0.0,0.0
11:19:46,726975.0,0.0,0.0
11:19:46,726919.0,0.0,0.0
11:19:46,726927.0,0.0,0.0
11:19:46,726989.0,0.0,0.0
11:19:46,726869.0,0.0,0.0
11:19:46,726941.0,0.0,0.0
11:19:46,726864.0,0.0,0.0
11:19:46,726864.0,0.0,0.0
11:19:46,726939.0,0.0,0.0
11:19:46,726840.0,0.0,0.0
11:19:46,726919.0,0.0,0.0
11:19:46,726822.0,0.0,0.0
11:19:46,726855.0,0.0,0.0
11:19:46,726911.0,0.0,0.0
11:19:46,726826.0,0.0,0.0
11:19:46,726922.0,0.0,0.0
11:19:46,726853.0,0.0,0.0
11:19:46,726846.0,0.0,0.0
11:19:46,726867.0,0.0,0.0
11:19:46,726779.0,0.0,0.0
11:19:46,726884.0,0.0,0.0
11:19:46,726804.0,0.0,0.0
11:19:46,726779.0,0.0,0.0
11:19:46,726821.0,0.0,0.0
11:19:46,726708.0,0.0,0.0
11:19:46,726819.0,0.0,0.0
11:19:46,726750.0,0.0,0.0
11:19:46,726735.0,0.0,0.0
11:19:46,726774.0,0.0,0.0
11:19:46,726674.0,0.0,0.0
11:19:46,726791.0,0.0,0.0
11:19:46,726712.0,0.0,0.0
11:19:46,726713.0,0.0,0.0
11:19:46,726724.0,0.0,0.0
11:19:46,726668.0,0.0,0.0
11:19:46,726764.0,0.0,0.0
11:19:46,726674.0,0.0,0.0
11:19:46,726697.0,0.0,0.0
11:19:46,726717.0,0.0,0.0
11:19:46,726659.0,0.0,0.0
11:19:46,726772.0,0.0,0.0
11:19:46,726704.0,0.0,0.0
11:19:46,726696.0,0.0,0.0
11:19:46,726714.0,0.0,0.0
11:19:46,726639.0,0.0,0.0
11:19:46,726738.0,0.0,0.0
11:19:46,726652.0,0.0,0.0
11:19:46,726669.0,0.0,0.0
11:19:46,726695.0,0.0,0.0
11:19:46,726593.0,0.0,0.0
11:19:46,726716.0,0.0,0.0
11:19:46,726618.0,0.0,0.0
11:19:46,726635.0,0.0,0.0
11:19:46,726653.0,0.0,0.0
11:19:46,726588.0,0.0,0.0
11:19:46,726715.0,0.0,0.0
11:19:46,726634.0,0.0,0.0
11:19:46,726636.0,0.0,0.0
11:19:46,726687.0,0.0,0.0
11:19:46,726611.0,0.0,0.0
11:19:46,726734.0,0.0,0.0
11:19:46,726676.0,0.0,0.0
11:19:46,726719.0,0.0,0.0
11:19:46,726763.0,0.0,0.0
11:19:46,726684.0,0.0,0.0
11:19:46,726793.0,0.0,0.0
11:19:46,726724.0,0.0,0.0
11:19:46,726768.0,0.0,0.0
11:19:46,726808.0,0.0,0.0
11:19:46,726721.0,0.0,0.0
11:19:46,726861.0,0.0,0.0
11:19:46,726788.0,0.0,0.0
11:19:47,726809.0,0.0,0.0
11:19:47,726832.0,0.0,0.0
11:19:47,726712.0,0.0,0.0
11:19:47,726808.0,0.0,0.0
11:19:47,726739.0,0.0,0.0
11:19:47,726792.0,0.0,0.0
11:19:47,726801.0,0.0,0.0
11:19:47,726681.0,0.0,0.0
11:19:47,726764.0,0.0,0.0
11:19:47,726646.0,0.0,0.0
11:19:47,726709.0,0.0,0.0
11:19:47,726887.0,0.0,0.0
11:19:47,726906.0,0.0,0.0
11:19:47,726941.0,0.0,0.0
11:19:47,726784.0,0.0,0.0
11:19:47,726798.0,0.0,0.0
11:19:47,726811.0,0.0,0.0
11:19:47,726755.0,0.0,0.0
11:19:47,726858.0,0.0,0.0
11:19:47,726763.0,0.0,0.0
11:19:47,726814.0,0.0,0.0
11:19:47,726804.0,0.0,0.0
11:19:47,726734.0,0.0,0.0
11:19:47,726866.0,0.0,0.0
11:19:47,726804.0,0.0,0.0
11:19:47,726813.0,0.0,0.0
11:19:47,726843.0,0.0,0.0
11:19:47,726771.0,0.0,0.0
11:19:47,726859.0,0.0,0.0
11:19:47,726781.0,0.0,0.0
11:19:47,726815.0,0.0,0.0
11:19:47,726813.0,0.0,0.0
11:19:47,726754.0,0.0,0.0
11:19:47,726872.0,0.0,0.0
11:19:47,726786.0,0.0,0.0
11:19:47,726828.0,0.0,0.0
11:19:47,726829.0,0.0,0.0
11:19:47,726754.0,0.0,0.0
11:19:47,726874.0,0.0,0.0
11:19:47,726821.0,0.0,0.0
11:19:47,726876.0,0.0,0.0
11:19:47,726899.0,0.0,0.0
11:19:47,726833.0,0.0,0.0
11:19:47,726958.0,0.0,0.0
11:19:47,726889.0,0.0,0.0
11:19:47,726978.0,0.0,0.0
11:19:47,727004.0,0.0,0.0
11:19:47,726940.0,0.0,0.0
11:19:47,727024.0,0.0,0.0
11:19:47,726954.0,0.0,0.0
11:19:47,727012.0,0.0,0.0
11:19:47,727056.0,0.0,0.0
11:19:47,726986.0,0.0,0.0
11:19:47,727067.0,0.0,0.0
11:19:47,726997.0,0.0,0.0
11:19:47,727063.0,0.0,0.0
11:19:47,727101.0,0.0,0.0
11:19:47,727074.0,0.0,0.0
11:19:47,727211.0,0.0,0.0
11:19:47,727130.0,0.0,0.0
11:19:47,727194.0,0.0,0.0
11:19:47,727226.0,0.0,0.0
11:19:47,727123.0,0.0,0.0
11:19:47,727237.0,0.0,0.0
11:19:47,727147.0,0.0,0.0
11:19:47,727221.0,0.0,0.0
11:19:47,727233.0,0.0,0.0
11:19:47,727162.0,0.0,0.0
11:19:47,727256.0,0.0,0.0
11:19:47,727173.0,0.0,0.0
11:19:47,727245.0,0.0,0.0
11:19:47,727254.0,0.0,0.0
11:19:47,727196.0,0.0,0.0
11:19:47,727312.0,0.0,0.0
11:19:47,727237.0,0.0,0.0
11:19:47,727311.0,0.0,0.0
11:19:47,727301.0,0.0,0.0
11:19:47,727265.0,0.0,0.0
11:19:47,727401.0,0.0,0.0
11:19:47,727295.0,0.0,0.0
11:19:47,727373.0,0.0,0.0
11:19:47,727414.0,0.0,0.0
11:19:47,727346.0,0.0,0.0
11:19:47,727451.0,0.0,0.0
11:19:47,727384.0,0.0,0.0
11:19:47,727438.0,0.0,0.0
11:19:47,727453.0,0.0,0.0
11:19:47,727433.0,0.0,0.0
11:19:47,727528.0,0.0,0.0
11:19:47,727454.0,0.0,0.0
11:19:47,727548.0,0.0,0.0
11:19:47,727541.0,0.0,0.0
11:19:47,727499.0,0.0,0.0
11:19:47,727621.0,0.0,0.0
11:19:47,727545.0,0.0,0.0
11:19:47,727640.0,0.0,0.0
11:19:47,727607.0,0.0,0.0
11:19:47,727559.0,0.0,0.0
11:19:47,727704.0,0.0,0.0
11:19:47,727632.0,0.0,0.0
11:19:47,727682.0,0.0,0.0
11:19:47,727685.0,0.0,0.0
11:19:47,727633.0,0.0,0.0
11:19:47,727760.0,0.0,0.0
11:19:47,727689.0,0.0,0.0
11:19:47,727749.0,0.0,0.0
11:19:47,727779.0,0.0,0.0
11:19:47,727743.0,0.0,0.0
11:19:47,727828.0,0.0,0.0
11:19:47,727735.0,0.0,0.0
11:19:47,727810.0,0.0,0.0
11:19:47,727824.0,0.0,0.0
11:19:47,727773.0,0.0,0.0
11:19:47,727876.0,0.0,0.0
11:19:47,727794.0,0.0,0.0
11:19:47,727868.0,0.0,0.0
11:19:47,727911.0,0.0,0.0
11:19:47,727856.0,0.0,0.0
11:19:47,727941.0,0.0,0.0
11:19:47,727843.0,0.0,0.0
11:19:47,727946.0,0.0,0.0
11:19:47,727953.0,0.0,0.0
11:19:47,727893.0,0.0,0.0
11:19:47,728002.0,0.0,0.0
11:19:47,727909.0,0.0,0.0
11:19:48,727923.0,0.0,0.0
11:19:48,727884.0,0.0,0.0
11:19:48,727903.0,0.0,0.0
11:19:48,728175.0,0.0,0.0
11:19:48,728147.0,0.0,0.0
11:19:48,728156.0,0.0,0.0
11:19:48,728099.0,0.0,0.0
11:19:48,728039.0,0.0,0.0
11:19:48,728129.0,0.0,0.0
11:19:48,728035.0,0.0,0.0
11:19:48,728138.0,0.0,0.0
11:19:48,728129.0,0.0,0.0
11:19:48,728077.0,0.0,0.0
11:19:48,728161.0,0.0,0.0
11:19:48,728054.0,0.0,0.0
11:19:48,728133.0,0.0,0.0
11:19:48,728132.0,0.0,0.0
11:19:48,728104.0,0.0,0.0
11:19:48,728218.0,0.0,0.0
11:19:48,728117.0,0.0,0.0
11:19:48,728186.0,0.0,0.0
11:19:48,728179.0,0.0,0.0
11:19:48,728108.0,0.0,0.0
11:19:48,728208.0,0.0,0.0
11:19:48,728119.0,0.0,0.0
11:19:48,728204.0,0.0,0.0
11:19:48,728186.0,0.0,0.0
11:19:48,728140.0,0.0,0.0
11:19:48,728259.0,0.0,0.0
11:19:48,728148.0,0.0,0.0
11:19:48,728244.0,0.0,0.0
11:19:48,728239.0,0.0,0.0
11:19:48,728168.0,0.0,0.0
11:19:48,728272.0,0.0,0.0
11:19:48,728196.0,0.0,0.0
11:19:48,728270.0,0.0,0.0
11:19:48,728241.0,0.0,0.0
11:19:48,728238.0,0.0,0.0
11:19:48,728341.0,0.0,0.0
11:19:48,728222.0,0.0,0.0
11:19:48,728279.0,0.0,0.0
11:19:48,728254.0,0.0,0.0
11:19:48,728215.0,0.0,0.0
11:19:48,728327.0,0.0,0.0
11:19:48,728228.0,0.0,0.0
11:19:48,728307.0,0.0,0.0
11:19:48,728303.0,0.0,0.0
11:19:48,728257.0,0.0,0.0
11:19:48,728349.0,0.0,0.0
11:19:48,728265.0,0.0,0.0
11:19:48,728379.0,0.0,0.0
11:19:48,728388.0,0.0,0.0
11:19:48,728346.0,0.0,0.0
11:19:48,728412.0,0.0,0.0
11:19:48,728327.0,0.0,0.0
11:19:48,728434.0,0.0,0.0
11:19:48,728454.0,0.0,0.0
11:19:48,728393.0,0.0,0.0
11:19:48,728476.0,0.0,0.0
11:19:48,728383.0,0.0,0.0
11:19:48,728459.0,0.0,0.0
11:19:48,728465.0,0.0,0.0
11:19:48,728451.0,0.0,0.0
11:19:48,728509.0,0.0,0.0
11:19:48,728412.0,0.0,0.0
11:19:48,728506.0,0.0,0.0
11:19:48,728469.0,0.0,0.0
11:19:48,728426.0,0.0,0.0
11:19:48,728522.0,0.0,0.0
11:19:48,728443.0,0.0,0.0
11:19:48,728532.0,0.0,0.0
11:19:48,728480.0,0.0,0.0
11:19:48,728491.0,0.0,0.0
11:19:48,728588.0,0.0,0.0
11:19:48,728472.0,0.0,0.0
11:19:48,728588.0,0.0,0.0
11:19:48,728553.0,0.0,0.0
11:19:48,728521.0,0.0,0.0
11:19:48,728623.0,0.0,0.0
11:19:48,728522.0,0.0,0.0
11:19:48,728618.0,0.0,0.0
11:19:48,728613.0,0.0,0.0
11:19:48,728578.0,0.0,0.0
11:19:48,728638.0,0.0,0.0
11:19:48,728549.0,0.0,0.0
11:19:48,728645.0,0.0,0.0
11:19:48,728610.0,0.0,0.0
11:19:48,728594.0,0.0,0.0
11:19:48,728654.0,0.0,0.0
11:19:48,728552.0,0.0,0.0
11:19:48,728658.0,0.0,0.0
11:19:48,728651.0,0.0,0.0
11:19:48,728619.0,0.0,0.0
11:19:48,728679.0,0.0,0.0
11:19:48,728580.0,0.0,0.0
11:19:48,728704.0,0.0,0.0
11:19:48,728668.0,0.0,0.0
11:19:48,728637.0,0.0,0.0
11:19:48,728733.0,0.0,0.0
11:19:48,728631.0,0.0,0.0
11:19:48,728712.0,0.0,0.0
11:19:48,728681.0,0.0,0.0
11:19:48,728649.0,0.0,0.0
11:19:48,728721.0,0.0,0.0
11:19:48,728628.0,0.0,0.0
11:19:48,728737.0,0.0,0.0
11:19:48,728718.0,0.0,0.0
11:19:48,728723.0,0.0,0.0
11:19:48,728788.0,0.0,0.0
11:19:48,728673.0,0.0,0.0
11:19:48,728767.0,0.0,0.0
11:19:48,728756.0,0.0,0.0
11:19:48,728722.0,0.0,0.0
11:19:48,728779.0,0.0,0.0
11:19:48,728649.0,0.0,0.0
11:19:48,728739.0,0.0,0.0
11:19:48,728733.0,0.0,0.0
11:19:48,728688.0,0.0,0.0
11:19:48,728733.0,0.0,0.0
11:19:48,728547.0,0.0,0.0
11:19:48,728690.0,0.0,0.0
11:19:48,728784.0,0.0,0.0
11:19:48,728849.0,0.0,0.0
11:19:48,728876.0,0.0,0.0
11:19:48,728712.0,0.0,0.0
11:19:49,728748.0,0.0,0.0
11:19:49,728681.0,0.0,0.0
11:19:49,728680.0,0.0,0.0
11:19:49,728748.0,0.0,0.0
11:19:49,728649.0,0.0,0.0
11:19:49,728723.0,0.0,0.0
11:19:49,728676.0,0.0,0.0
11:19:49,728653.0,0.0,0.0
11:19:49,728737.0,0.0,0.0
11:19:49,728628.0,0.0,0.0
11:19:49,728724.0,0.0,0.0
11:19:49,728679.0,0.0,0.0
11:19:49,728647.0,0.0,0.0
11:19:49,728705.0,0.0,0.0
11:19:49,728598.0,0.0,0.0
11:19:49,728694.0,0.0,0.0
11:19:49,728628.0,0.0,0.0
11:19:49,728612.0,0.0,0.0
11:19:49,728685.0,0.0,0.0
11:19:49,728570.0,0.0,0.0
11:19:49,728645.0,0.0,0.0
11:19:49,728601.0,0.0,0.0
11:19:49,728576.0,0.0,0.0
11:19:49,728624.0,0.0,0.0
11:19:49,728528.0,0.0,0.0
11:19:49,728623.0,0.0,0.0
11:19:49,728571.0,0.0,0.0
11:19:49,728555.0,0.0,0.0
11:19:49,728630.0,0.0,0.0
11:19:49,728518.0,0.0,0.0
11:19:49,728621.0,0.0,0.0
11:19:49,728571.0,0.0,0.0
11:19:49,728547.0,0.0,0.0
11:19:49,728590.0,0.0,0.0
11:19:49,728472.0,0.0,0.0
11:19:49,728569.0,0.0,0.0
11:19:49,728505.0,0.0,0.0
11:19:49,728501.0,0.0,0.0
11:19:49,728537.0,0.0,0.0
11:19:49,728425.0,0.0,0.0
11:19:49,728550.0,0.0,0.0
11:19:49,728501.0,0.0,0.0
11:19:49,728492.0,0.0,0.0
11:19:49,728542.0,0.0,0.0
11:19:49,728431.0,0.0,0.0
11:19:49,728512.0,0.0,0.0
11:19:49,728466.0,0.0,0.0
11:19:49,728455.0,0.0,0.0
11:19:49,728506.0,0.0,0.0
11:19:49,728389.0,0.0,0.0
11:19:49,728491.0,0.0,0.0
11:19:49,728414.0,0.0,0.0
11:19:49,728403.0,0.0,0.0
11:19:49,728457.0,0.0,0.0
11:19:49,728372.0,0.0,0.0
11:19:49,728466.0,0.0,0.0
11:19:49,728376.0,0.0,0.0
11:19:49,728355.0,0.0,0.0
11:19:49,728413.0,0.0,0.0
11:19:49,728313.0,0.0,0.0
11:19:49,728438.0,0.0,0.0
11:19:49,728369.0,0.0,0.0
11:19:49,728335.0,0.0,0.0
11:19:49,728401.0,0.0,0.0
11:19:49,728303.0,0.0,0.0
11:19:49,728375.0,0.0,0.0
11:19:49,728288.0,0.0,0.0
11:19:49,728325.0,0.0,0.0
11:19:49,728369.0,0.0,0.0
11:19:49,728258.0,0.0,0.0
11:19:49,728331.0,0.0,0.0
11:19:49,728244.0,0.0,0.0
11:19:49,728254.0,0.0,0.0
11:19:49,728313.0,0.0,0.0
11:19:49,728190.0,0.0,0.0
11:19:49,728312.0,0.0,0.0
11:19:49,728216.0,0.0,0.0
11:19:49,728204.0,0.0,0.0
11:19:49,728256.0,0.0,0.0
11:19:49,728143.0,0.0,0.0
11:19:49,728205.0,0.0,0.0
11:19:49,728134.0,0.0,0.0
11:19:49,728149.0,0.0,0.0
11:19:49,728136.0,0.0,0.0
11:19:49,728068.0,0.0,0.0
11:19:49,728162.0,0.0,0.0
11:19:49,728072.0,0.0,0.0
11:19:49,728088.0,0.0,0.0
11:19:49,728098.0,0.0,0.0
11:19:49,727984.0,0.0,0.0
11:19:49,728094.0,0.0,0.0
11:19:49,728004.0,0.0,0.0
11:19:49,727977.0,0.0,0.0
11:19:49,728014.0,0.0,0.0
11:19:49,727935.0,0.0,0.0
11:19:49,728009.0,0.0,0.0
11:19:49,727935.0,0.0,0.0
11:19:49,727955.0,0.0,0.0
11:19:49,727969.0,0.0,0.0
11:19:49,727864.0,0.0,0.0
11:19:49,727963.0,0.0,0.0
11:19:49,727865.0,0.0,0.0
11:19:49,727918.0,0.0,0.0
11:19:49,727932.0,0.0,0.0
11:19:49,727798.0,0.0,0.0
11:19:49,727877.0,0.0,0.0
11:19:49,727801.0,0.0,0.0
11:19:49,727839.0,0.0,0.0
11:19:49,727874.0,0.0,0.0
11:19:49,727764.0,0.0,0.0
11:19:49,727793.0,0.0,0.0
11:19:49,727668.0,0.0,0.0
11:19:49,727648.0,0.0,0.0
11:19:49,727762.0,0.0,0.0
11:19:49,727794.0,0.0,0.0
11:19:49,727879.0,0.0,0.0
11:19:49,727729.0,0.0,0.0
11:19:49,727691.0,0.0,0.0
11:19:49,727711.0,0.0,0.0
11:19:49,727626.0,0.0,0.0
11:19:49,727725.0,0.0,0.0
11:19:49,727659.0,0.0,0.0
11:19:49,727662.0,0.0,0.0
11:19:49,727661.0,0.0,0.0
11:19:49,727547.0,0.0,0.0
11:19:50,727631.0,0.0,0.0
11:19:50,727564.0,0.0,0.0
11:19:50,727574.0,0.0,0.0
11:19:50,727608.0,0.0,0.0
11:19:50,727517.0,0.0,0.0
11:19:50,727584.0,0.0,0.0
11:19:50,727474.0,0.0,0.0
11:19:50,727492.0,0.0,0.0
11:19:50,727526.0,0.0,0.0
11:19:50,727420.0,0.0,0.0
11:19:50,727514.0,0.0,0.0
11:19:50,727431.0,0.0,0.0
11:19:50,727436.0,0.0,0.0
11:19:50,727442.0,0.0,0.0
11:19:50,727346.0,0.0,0.0
11:19:50,727438.0,0.0,0.0
11:19:50,727351.0,0.0,0.0
11:19:50,727380.0,0.0,0.0
11:19:50,727398.0,0.0,0.0
11:19:50,727302.0,0.0,0.0
11:19:50,727408.0,0.0,0.0
11:19:50,727328.0,0.0,0.0
11:19:50,727333.0,0.0,0.0
11:19:50,727362.0,0.0,0.0
11:19:50,727286.0,0.0,0.0
11:19:50,727394.0,0.0,0.0
11:19:50,727266.0,0.0,0.0
11:19:50,727294.0,0.0,0.0
11:19:50,727341.0,0.0,0.0
11:19:50,727248.0,0.0,0.0
11:19:50,727292.0,0.0,0.0
11:19:50,727206.0,0.0,0.0
11:19:50,727261.0,0.0,0.0
11:19:50,727281.0,0.0,0.0
11:19:50,727174.0,0.0,0.0
11:19:50,727267.0,0.0,0.0
11:19:50,727141.0,0.0,0.0
11:19:50,727190.0,0.0,0.0
11:19:50,727206.0,0.0,0.0
11:19:50,727111.0,0.0,0.0
11:19:50,727204.0,0.0,0.0
11:19:50,727068.0,0.0,0.0
11:19:50,727098.0,0.0,0.0
11:19:50,727134.0,0.0,0.0
11:19:50,727014.0,0.0,0.0
11:19:50,727105.0,0.0,0.0
11:19:50,726996.0,0.0,0.0
11:19:50,727037.0,0.0,0.0
11:19:50,727031.0,0.0,0.0
11:19:50,726966.0,0.0,0.0
11:19:50,727099.0,0.0,0.0
11:19:50,726983.0,0.0,0.0
11:19:50,727006.0,0.0,0.0
11:19:50,727008.0,0.0,0.0
11:19:50,726925.0,0.0,0.0
11:19:50,727018.0,0.0,0.0
11:19:50,726919.0,0.0,0.0
11:19:50,726954.0,0.0,0.0
11:19:50,726958.0,0.0,0.0
11:19:50,726899.0,0.0,0.0
11:19:50,727003.0,0.0,0.0
11:19:50,726868.0,0.0,0.0
11:19:50,726913.0,0.0,0.0
11:19:50,726898.0,0.0,0.0
11:19:50,726813.0,0.0,0.0
11:19:50,726902.0,0.0,0.0
11:19:50,726808.0,0.0,0.0
11:19:50,726820.0,0.0,0.0
11:19:50,726837.0,0.0,0.0
11:19:50,726755.0,0.0,0.0
11:19:50,726854.0,0.0,0.0
11:19:50,726721.0,0.0,0.0
11:19:50,726758.0,0.0,0.0
11:19:50,726766.0,0.0,0.0
11:19:50,726697.0,0.0,0.0
11:19:50,726815.0,0.0,0.0
11:19:50,726708.0,0.0,0.0
11:19:50,726751.0,0.0,0.0
11:19:50,726754.0,0.0,0.0
11:19:50,726634.0,0.0,0.0
11:19:50,726731.0,0.0,0.0
11:19:50,726638.0,0.0,0.0
11:19:50,726667.0,0.0,0.0
11:19:50,726671.0,0.0,0.0
11:19:50,726586.0,0.0,0.0
11:19:50,726672.0,0.0,0.0
11:19:50,726556.0,0.0,0.0
11:19:50,726635.0,0.0,0.0
11:19:50,726615.0,0.0,0.0
11:19:50,726525.0,0.0,0.0
11:19:50,726606.0,0.0,0.0
11:19:50,726491.0,0.0,0.0
11:19:50,726530.0,0.0,0.0
11:19:50,726513.0,0.0,0.0
11:19:50,726446.0,0.0,0.0
11:19:50,726551.0,0.0,0.0
11:19:50,726462.0,0.0,0.0
11:19:50,726496.0,0.0,0.0
11:19:50,726506.0,0.0,0.0
11:19:50,726426.0,0.0,0.0
11:19:50,726479.0,0.0,0.0
11:19:50,726365.0,0.0,0.0
11:19:50,726417.0,0.0,0.0
11:19:50,726406.0,0.0,0.0
11:19:50,726339.0,0.0,0.0
11:19:50,726416.0,0.0,0.0
11:19:50,726270.0,0.0,0.0
11:19:50,726303.0,0.0,0.0
11:19:50,726436.0,0.0,0.0
11:19:50,726458.0,0.0,0.0
11:19:50,726538.0,0.0,0.0
11:19:50,726384.0,0.0,0.0
11:19:50,726371.0,0.0,0.0
11:19:50,726326.0,0.0,0.0
11:19:50,726279.0,0.0,0.0
11:19:50,726386.0,0.0,0.0
11:19:50,726281.0,0.0,0.0
11:19:50,726323.0,0.0,0.0
11:19:50,726334.0,0.0,0.0
11:19:50,726244.0,0.0,0.0
11:19:50,726343.0,0.0,0.0
11:19:50,726236.0,0.0,0.0
11:19:50,726273.0,0.0,0.0
11:19:50,726245.0,0.0,0.0
11:19:50,726181.0,0.0,0.0
11:19:51,726259.0,0.0,0.0
11:19:51,726162.0,0.0,0.0
11:19:51,726198.0,0.0,0.0
11:19:51,726176.0,0.0,0.0
11:19:51,726096.0,0.0,0.0
11:19:51,726195.0,0.0,0.0
11:19:51,726076.0,0.0,0.0
11:19:51,726115.0,0.0,0.0
11:19:51,726098.0,0.0,0.0
11:19:51,726065.0,0.0,0.0
11:19:51,726156.0,0.0,0.0
11:19:51,726012.0,0.0,0.0
11:19:51,726059.0,0.0,0.0
11:19:51,726052.0,0.0,0.0
11:19:51,725988.0,0.0,0.0
11:19:51,726091.0,0.0,0.0
11:19:51,725999.0,0.0,0.0
11:19:51,726073.0,0.0,0.0
11:19:51,726051.0,0.0,0.0
11:19:51,725999.0,0.0,0.0
11:19:51,726053.0,0.0,0.0
11:19:51,725969.0,0.0,0.0
11:19:51,726009.0,0.0,0.0
11:19:51,725976.0,0.0,0.0
11:19:51,725941.0,0.0,0.0
11:19:51,726018.0,0.0,0.0
11:19:51,725909.0,0.0,0.0
11:19:51,725976.0,0.0,0.0
11:19:51,725934.0,0.0,0.0
11:19:51,725909.0,0.0,0.0
11:19:51,726048.0,0.0,0.0
11:19:51,725903.0,0.0,0.0
11:19:51,725933.0,0.0,0.0
11:19:51,725925.0,0.0,0.0
11:19:51,725881.0,0.0,0.0
11:19:51,725971.0,0.0,0.0
11:19:51,725844.0,0.0,0.0
11:19:51,725901.0,0.0,0.0
11:19:51,725873.0,0.0,0.0
11:19:51,725828.0,0.0,0.0
11:19:51,725890.0,0.0,0.0
11:19:51,725769.0,0.0,0.0
11:19:51,725846.0,0.0,0.0
11:19:51,725839.0,0.0,0.0
11:19:51,725778.0,0.0,0.0
11:19:51,725856.0,0.0,0.0
11:19:51,725764.0,0.0,0.0
11:19:51,725805.0,0.0,0.0
11:19:51,725774.0,0.0,0.0
11:19:51,725749.0,0.0,0.0
11:19:51,725835.0,0.0,0.0
11:19:51,725709.0,0.0,0.0
11:19:51,725814.0,0.0,0.0
11:19:51,725774.0,0.0,0.0
11:19:51,725693.0,0.0,0.0
11:19:51,725790.0,0.0,0.0
11:19:51,725726.0,0.0,0.0
11:19:51,725766.0,0.0,0.0
11:19:51,725740.0,0.0,0.0
11:19:51,725688.0,0.0,0.0
11:19:51,725773.0,0.0,0.0
11:19:51,725684.0,0.0,0.0
11:19:51,725753.0,0.0,0.0
11:19:51,725690.0,0.0,0.0
11:19:51,725658.0,0.0,0.0
11:19:51,725758.0,0.0,0.0
11:19:51,725649.0,0.0,0.0
11:19:51,725699.0,0.0,0.0
11:19:51,725688.0,0.0,0.0
11:19:51,725628.0,0.0,0.0
11:19:51,725714.0,0.0,0.0
11:19:51,725618.0,0.0,0.0
11:19:51,725680.0,0.0,0.0
11:19:51,725646.0,0.0,0.0
11:19:51,725604.0,0.0,0.0
11:19:51,725689.0,0.0,0.0
11:19:51,725597.0,0.0,0.0
11:19:51,725666.0,0.0,0.0
11:19:51,725636.0,0.0,0.0
11:19:51,725591.0,0.0,0.0
11:19:51,725680.0,0.0,0.0
11:19:51,725578.0,0.0,0.0
11:19:51,725656.0,0.0,0.0
11:19:51,725644.0,0.0,0.0
11:19:51,725597.0,0.0,0.0
11:19:51,725668.0,0.0,0.0
11:19:51,725589.0,0.0,0.0
11:19:51,725655.0,0.0,0.0
11:19:51,725587.0,0.0,0.0
11:19:51,725564.0,0.0,0.0
11:19:51,725659.0,0.0,0.0
11:19:51,725557.0,0.0,0.0
11:19:51,725641.0,0.0,0.0
11:19:51,725607.0,0.0,0.0
11:19:51,725534.0,0.0,0.0
11:19:51,725623.0,0.0,0.0
11:19:51,725521.0,0.0,0.0
11:19:51,725596.0,0.0,0.0
11:19:51,725560.0,0.0,0.0
11:19:51,725516.0,0.0,0.0
11:19:51,725517.0,0.0,0.0
11:19:51,725379.0,0.0,0.0
11:19:51,725555.0,0.0,0.0
11:19:51,725646.0,0.0,0.0
11:19:51,725678.0,0.0,0.0
11:19:51,725666.0,0.0,0.0
11:19:51,725513.0,0.0,0.0
11:19:51,725578.0,0.0,0.0
11:19:51,725546.0,0.0,0.0
11:19:51,725553.0,0.0,0.0
11:19:51,725643.0,0.0,0.0
11:19:51,725511.0,0.0,0.0
11:19:51,725586.0,0.0,0.0
11:19:51,725543.0,0.0,0.0
11:19:51,725500.0,0.0,0.0
11:19:51,725579.0,0.0,0.0
11:19:51,725466.0,0.0,0.0
11:19:51,725589.0,0.0,0.0
11:19:51,725576.0,0.0,0.0
11:19:51,725524.0,0.0,0.0
11:19:51,725592.0,0.0,0.0
11:19:51,725494.0,0.0,0.0
11:19:51,725585.0,0.0,0.0
11:19:51,725519.0,0.0,0.0
11:19:51,725506.0,0.0,0.0
11:19:52,725594.0,0.0,0.0
11:19:52,725471.0,0.0,0.0
11:19:52,725549.0,0.0,0.0
11:19:52,725489.0,0.0,0.0
11:19:52,725476.0,0.0,0.0
11:19:52,725549.0,0.0,0.0
11:19:52,725439.0,0.0,0.0
11:19:52,725541.0,0.0,0.0
11:19:52,725488.0,0.0,0.0
11:19:52,725482.0,0.0,0.0
11:19:52,725546.0,0.0,0.0
11:19:52,725451.0,0.0,0.0
11:19:52,725544.0,0.0,0.0
11:19:52,725505.0,0.0,0.0
11:19:52,725479.0,0.0,0.0
11:19:52,725541.0,0.0,0.0
11:19:52,725401.0,0.0,0.0
11:19:52,725495.0,0.0,0.0
11:19:52,725471.0,0.0,0.0
11:19:52,725463.0,0.0,0.0
11:19:52,725543.0,0.0,0.0
11:19:52,725454.0,0.0,0.0
11:19:52,725528.0,0.0,0.0
11:19:52,725487.0,0.0,0.0
11:19:52,725492.0,0.0,0.0
11:19:52,725587.0,0.0,0.0
11:19:52,725459.0,0.0,0.0
11:19:52,725533.0,0.0,0.0
11:19:52,725481.0,0.0,0.0
11:19:52,725461.0,0.0,0.0
11:19:52,725523.0,0.0,0.0
11:19:52,725420.0,0.0,0.0
11:19:52,725526.0,0.0,0.0
11:19:52,725458.0,0.0,0.0
11:19:52,725429.0,0.0,0.0
11:19:52,725529.0,0.0,0.0
11:19:52,725418.0,0.0,0.0
11:19:52,725486.0,0.0,0.0
11:19:52,725434.0,0.0,0.0
11:19:52,725437.0,0.0,0.0
11:19:52,725503.0,0.0,0.0
11:19:52,725414.0,0.0,0.0
11:19:52,725500.0,0.0,0.0
11:19:52,725466.0,0.0,0.0
11:19:52,725455.0,0.0,0.0
11:19:52,725513.0,0.0,0.0
11:19:52,725419.0,0.0,0.0
11:19:52,725524.0,0.0,0.0
11:19:52,725489.0,0.0,0.0
11:19:52,725502.0,0.0,0.0
11:19:52,725566.0,0.0,0.0
11:19:52,725491.0,0.0,0.0
11:19:52,725576.0,0.0,0.0
11:19:52,725492.0,0.0,0.0
11:19:52,725511.0,0.0,0.0
11:19:52,725621.0,0.0,0.0
11:19:52,725538.0,0.0,0.0
11:19:52,725628.0,0.0,0.0
11:19:52,725578.0,0.0,0.0
11:19:52,725573.0,0.0,0.0
11:19:52,725641.0,0.0,0.0
11:19:52,725535.0,0.0,0.0
11:19:52,725654.0,0.0,0.0
11:19:52,725590.0,0.0,0.0
11:19:52,725607.0,0.0,0.0
11:19:52,725673.0,0.0,0.0
11:19:52,725607.0,0.0,0.0
11:19:52,725739.0,0.0,0.0
11:19:52,725656.0,0.0,0.0
11:19:52,725666.0,0.0,0.0
11:19:52,725746.0,0.0,0.0
11:19:52,725676.0,0.0,0.0
11:19:52,725788.0,0.0,0.0
11:19:52,725711.0,0.0,0.0
11:19:52,725753.0,0.0,0.0
11:19:52,725803.0,0.0,0.0
11:19:52,725734.0,0.0,0.0
11:19:52,725850.0,0.0,0.0
11:19:52,725788.0,0.0,0.0
11:19:52,725818.0,0.0,0.0
11:19:52,725895.0,0.0,0.0
11:19:52,725826.0,0.0,0.0
11:19:52,725944.0,0.0,0.0
11:19:52,725881.0,0.0,0.0
11:19:52,725899.0,0.0,0.0
11:19:52,725968.0,0.0,0.0
11:19:52,725891.0,0.0,0.0
11:19:52,726010.0,0.0,0.0
11:19:52,725938.0,0.0,0.0
11:19:52,725959.0,0.0,0.0
11:19:52,726031.0,0.0,0.0
11:19:52,725914.0,0.0,0.0
11:19:52,726038.0,0.0,0.0
11:19:52,725975.0,0.0,0.0
11:19:52,726024.0,0.0,0.0
11:19:52,726060.0,0.0,0.0
11:19:52,725934.0,0.0,0.0
11:19:52,726006.0,0.0,0.0
11:19:52,726059.0,0.0,0.0
11:19:52,726215.0,0.0,0.0
11:19:52,726278.0,0.0,0.0
11:19:52,726148.0,0.0,0.0
11:19:52,726207.0,0.0,0.0
11:19:52,726108.0,0.0,0.0
11:19:52,726164.0,0.0,0.0
11:19:52,726215.0,0.0,0.0
11:19:52,726111.0,0.0,0.0
11:19:52,726241.0,0.0,0.0
11:19:52,726193.0,0.0,0.0
11:19:52,726199.0,0.0,0.0
11:19:52,726229.0,0.0,0.0
11:19:52,726194.0,0.0,0.0
11:19:52,726284.0,0.0,0.0
11:19:52,726221.0,0.0,0.0
11:19:52,726289.0,0.0,0.0
11:19:52,726344.0,0.0,0.0
11:19:52,726251.0,0.0,0.0
11:19:52,726343.0,0.0,0.0
11:19:52,726263.0,0.0,0.0
11:19:52,726323.0,0.0,0.0
11:19:52,726371.0,0.0,0.0
11:19:52,726294.0,0.0,0.0
11:19:52,726419.0,0.0,0.0
11:19:52,726336.0,0.0,0.0
11:19:53,726373.0,0.0,0.0
11:19:53,726419.0,0.0,0.0
11:19:53,726337.0,0.0,0.0
11:19:53,726452.0,0.0,0.0
11:19:53,726399.0,0.0,0.0
11:19:53,726461.0,0.0,0.0
11:19:53,726485.0,0.0,0.0
11:19:53,726401.0,0.0,0.0
11:19:53,726522.0,0.0,0.0
11:19:53,726459.0,0.0,0.0
11:19:53,726489.0,0.0,0.0
11:19:53,726566.0,0.0,0.0
11:19:53,726466.0,0.0,0.0
11:19:53,726587.0,0.0,0.0
11:19:53,726541.0,0.0,0.0
11:19:53,726596.0,0.0,0.0
11:19:53,726632.0,0.0,0.0
11:19:53,726535.0,0.0,0.0
11:19:53,726671.0,0.0,0.0
11:19:53,726630.0,0.0,0.0
11:19:53,726680.0,0.0,0.0
11:19:53,726746.0,0.0,0.0
11:19:53,726678.0,0.0,0.0
11:19:53,726791.0,0.0,0.0
11:19:53,726739.0,0.0,0.0
11:19:53,726811.0,0.0,0.0
11:19:53,726856.0,0.0,0.0
11:19:53,726759.0,0.0,0.0
11:19:53,726870.0,0.0,0.0
11:19:53,726821.0,0.0,0.0
11:19:53,726886.0,0.0,0.0
11:19:53,726922.0,0.0,0.0
11:19:53,726834.0,0.0,0.0
11:19:53,726948.0,0.0,0.0
11:19:53,726881.0,0.0,0.0
11:19:53,726970.0,0.0,0.0
11:19:53,727041.0,0.0,0.0
11:19:53,726936.0,0.0,0.0
11:19:53,727046.0,0.0,0.0
11:19:53,727004.0,0.0,0.0
11:19:53,727045.0,0.0,0.0
11:19:53,727109.0,0.0,0.0
11:19:53,727046.0,0.0,0.0
11:19:53,727169.0,0.0,0.0
11:19:53,727066.0,0.0,0.0
11:19:53,727131.0,0.0,0.0
11:19:53,727193.0,0.0,0.0
11:19:53,727131.0,0.0,0.0
11:19:53,727241.0,0.0,0.0
11:19:53,727169.0,0.0,0.0
11:19:53,727242.0,0.0,0.0
11:19:53,727281.0,0.0,0.0
11:19:53,727199.0,0.0,0.0
11:19:53,727337.0,0.0,0.0
11:19:53,727291.0,0.0,0.0
11:19:53,727336.0,0.0,0.0
11:19:53,727391.0,0.0,0.0
11:19:53,727348.0,0.0,0.0
11:19:53,727461.0,0.0,0.0
11:19:53,727371.0,0.0,0.0
11:19:53,727406.0,0.0,0.0
11:19:53,727434.0,0.0,0.0
11:19:53,727381.0,0.0,0.0
11:19:53,727534.0,0.0,0.0
11:19:53,727449.0,0.0,0.0
11:19:53,727480.0,0.0,0.0
11:19:53,727525.0,0.0,0.0
11:19:53,727484.0,0.0,0.0
11:19:53,727609.0,0.0,0.0
11:19:53,727498.0,0.0,0.0
11:19:53,727568.0,0.0,0.0
11:19:53,727609.0,0.0,0.0
11:19:53,727559.0,0.0,0.0
11:19:53,727689.0,0.0,0.0
11:19:53,727603.0,0.0,0.0
11:19:53,727649.0,0.0,0.0
11:19:53,727679.0,0.0,0.0
11:19:53,727589.0,0.0,0.0
11:19:53,727738.0,0.0,0.0
11:19:53,727627.0,0.0,0.0
11:19:53,727716.0,0.0,0.0
11:19:53,727772.0,0.0,0.0
11:19:53,727685.0,0.0,0.0
11:19:53,727806.0,0.0,0.0
11:19:53,727731.0,0.0,0.0
11:19:53,727784.0,0.0,0.0
11:19:53,727816.0,0.0,0.0
11:19:53,727711.0,0.0,0.0
11:19:53,727839.0,0.0,0.0
11:19:53,727769.0,0.0,0.0
11:19:53,727839.0,0.0,0.0
11:19:53,727816.0,0.0,0.0
11:19:53,727668.0,0.0,0.0
11:19:53,727854.0,0.0,0.0
11:19:53,727920.0,0.0,0.0
11:19:53,728043.0,0.0,0.0
11:19:53,728031.0,0.0,0.0
11:19:53,727912.0,0.0,0.0
11:19:53,728005.0,0.0,0.0
11:19:53,727911.0,0.0,0.0
11:19:53,727988.0,0.0,0.0
11:19:53,727994.0,0.0,0.0
11:19:53,727933.0,0.0,0.0
11:19:53,728062.0,0.0,0.0
11:19:53,727977.0,0.0,0.0
11:19:53,728007.0,0.0,0.0
11:19:53,728018.0,0.0,0.0
11:19:53,728002.0,0.0,0.0
11:19:53,728129.0,0.0,0.0
11:19:53,728029.0,0.0,0.0
11:19:53,728100.0,0.0,0.0
11:19:53,728130.0,0.0,0.0
11:19:53,728071.0,0.0,0.0
11:19:53,728189.0,0.0,0.0
11:19:53,728074.0,0.0,0.0
11:19:53,728124.0,0.0,0.0
11:19:53,728152.0,0.0,0.0
11:19:53,728090.0,0.0,0.0
11:19:53,728172.0,0.0,0.0
11:19:53,728081.0,0.0,0.0
11:19:53,728189.0,0.0,0.0
11:19:53,728177.0,0.0,0.0
11:19:53,728110.0,0.0,0.0
11:19:53,728249.0,0.0,0.0
11:19:53,728144.0,0.0,0.0
11:19:54,728212.0,0.0,0.0
11:19:54,728236.0,0.0,0.0
11:19:54,728179.0,0.0,0.0
11:19:54,728319.0,0.0,0.0
11:19:54,728205.0,0.0,0.0
11:19:54,728254.0,0.0,0.0
11:19:54,728269.0,0.0,0.0
11:19:54,728194.0,0.0,0.0
11:19:54,728310.0,0.0,0.0
11:19:54,728198.0,0.0,0.0
11:19:54,728253.0,0.0,0.0
11:19:54,728261.0,0.0,0.0
11:19:54,728218.0,0.0,0.0
11:19:54,728342.0,0.0,0.0
11:19:54,728246.0,0.0,0.0
11:19:54,728312.0,0.0,0.0
11:19:54,728309.0,0.0,0.0
11:19:54,728262.0,0.0,0.0
11:19:54,728385.0,0.0,0.0
11:19:54,728276.0,0.0,0.0
11:19:54,728374.0,0.0,0.0
11:19:54,728364.0,0.0,0.0
11:19:54,728299.0,0.0,0.0
11:19:54,728381.0,0.0,0.0
11:19:54,728299.0,0.0,0.0
11:19:54,728368.0,0.0,0.0
11:19:54,728357.0,0.0,0.0
11:19:54,728282.0,0.0,0.0
11:19:54,728394.0,0.0,0.0
11:19:54,728297.0,0.0,0.0
11:19:54,728376.0,0.0,0.0
11:19:54,728426.0,0.0,0.0
11:19:54,728332.0,0.0,0.0
11:19:54,728432.0,0.0,0.0
11:19:54,728356.0,0.0,0.0
11:19:54,728430.0,0.0,0.0
11:19:54,728408.0,0.0,0.0
11:19:54,728353.0,0.0,0.0
11:19:54,728476.0,0.0,0.0
11:19:54,728373.0,0.0,0.0
11:19:54,728429.0,0.0,0.0
11:19:54,728409.0,0.0,0.0
11:19:54,728361.0,0.0,0.0
11:19:54,728479.0,0.0,0.0
11:19:54,728383.0,0.0,0.0
11:19:54,728466.0,0.0,0.0
11:19:54,728448.0,0.0,0.0
11:19:54,728411.0,0.0,0.0
11:19:54,728506.0,0.0,0.0
11:19:54,728399.0,0.0,0.0
11:19:54,728456.0,0.0,0.0
11:19:54,728469.0,0.0,0.0
11:19:54,728439.0,0.0,0.0
11:19:54,728556.0,0.0,0.0
11:19:54,728398.0,0.0,0.0
11:19:54,728461.0,0.0,0.0
11:19:54,728466.0,0.0,0.0
11:19:54,728414.0,0.0,0.0
11:19:54,728508.0,0.0,0.0
11:19:54,728401.0,0.0,0.0
11:19:54,728491.0,0.0,0.0
11:19:54,728468.0,0.0,0.0
11:19:54,728425.0,0.0,0.0
11:19:54,728497.0,0.0,0.0
11:19:54,728384.0,0.0,0.0
11:19:54,728491.0,0.0,0.0
11:19:54,728474.0,0.0,0.0
11:19:54,728421.0,0.0,0.0
11:19:54,728504.0,0.0,0.0
11:19:54,728400.0,0.0,0.0
11:19:54,728476.0,0.0,0.0
11:19:54,728495.0,0.0,0.0
11:19:54,728475.0,0.0,0.0
11:19:54,728536.0,0.0,0.0
11:19:54,728403.0,0.0,0.0
11:19:54,728503.0,0.0,0.0
11:19:54,728485.0,0.0,0.0
11:19:54,728430.0,0.0,0.0
11:19:54,728529.0,0.0,0.0
11:19:54,728410.0,0.0,0.0
11:19:54,728491.0,0.0,0.0
11:19:54,728394.0,0.0,0.0
11:19:54,728282.0,0.0,0.0
11:19:54,728409.0,0.0,0.0
11:19:54,728438.0,0.0,0.0
11:19:54,728608.0,0.0,0.0
11:19:54,728558.0,0.0,0.0
11:19:54,728458.0,0.0,0.0
11:19:54,728510.0,0.0,0.0
11:19:54,728387.0,0.0,0.0
11:19:54,728464.0,0.0,0.0
11:19:54,728389.0,0.0,0.0
11:19:54,728380.0,0.0,0.0
11:19:54,728464.0,0.0,0.0
11:19:54,728345.0,0.0,0.0
11:19:54,728434.0,0.0,0.0
11:19:54,728403.0,0.0,0.0
11:19:54,728350.0,0.0,0.0
11:19:54,728453.0,0.0,0.0
11:19:54,728344.0,0.0,0.0
11:19:54,728422.0,0.0,0.0
11:19:54,728391.0,0.0,0.0
11:19:54,728364.0,0.0,0.0
11:19:54,728436.0,0.0,0.0
11:19:54,728328.0,0.0,0.0
11:19:54,728384.0,0.0,0.0
11:19:54,728333.0,0.0,0.0
11:19:54,728304.0,0.0,0.0
11:19:54,728404.0,0.0,0.0
11:19:54,728285.0,0.0,0.0
11:19:54,728344.0,0.0,0.0
11:19:54,728313.0,0.0,0.0
11:19:54,728273.0,0.0,0.0
11:19:54,728328.0,0.0,0.0
11:19:54,728220.0,0.0,0.0
11:19:54,728304.0,0.0,0.0
11:19:54,728264.0,0.0,0.0
11:19:54,728221.0,0.0,0.0
11:19:54,728292.0,0.0,0.0
11:19:54,728181.0,0.0,0.0
11:19:54,728259.0,0.0,0.0
11:19:54,728236.0,0.0,0.0
11:19:54,728198.0,0.0,0.0
11:19:54,728262.0,0.0,0.0
11:19:54,728138.0,0.0,0.0
11:19:55,728229.0,0.0,0.0
11:19:55,728180.0,0.0,0.0
11:19:55,728168.0,0.0,0.0
11:19:55,728251.0,0.0,0.0
11:19:55,728126.0,0.0,0.0
11:19:55,728223.0,0.0,0.0
11:19:55,728135.0,0.0,0.0
11:19:55,728101.0,0.0,0.0
11:19:55,728211.0,0.0,0.0
11:19:55,728096.0,0.0,0.0
11:19:55,728190.0,0.0,0.0
11:19:55,728146.0,0.0,0.0
11:19:55,728102.0,0.0,0.0
11:19:55,728178.0,0.0,0.0
11:19:55,728056.0,0.0,0.0
11:19:55,728152.0,0.0,0.0
11:19:55,728103.0,0.0,0.0
11:19:55,728097.0,0.0,0.0
11:19:55,728161.0,0.0,0.0
11:19:55,728054.0,0.0,0.0
11:19:55,728140.0,0.0,0.0
11:19:55,728127.0,0.0,0.0
11:19:55,728063.0,0.0,0.0
11:19:55,728138.0,0.0,0.0
11:19:55,728053.0,0.0,0.0
11:19:55,728137.0,0.0,0.0
11:19:55,728091.0,0.0,0.0
11:19:55,728071.0,0.0,0.0
11:19:55,728132.0,0.0,0.0
11:19:55,728026.0,0.0,0.0
11:19:55,728116.0,0.0,0.0
11:19:55,728045.0,0.0,0.0
11:19:55,728028.0,0.0,0.0
11:19:55,728116.0,0.0,0.0
11:19:55,728001.0,0.0,0.0
11:19:55,728078.0,0.0,0.0
11:19:55,728036.0,0.0,0.0
11:19:55,728022.0,0.0,0.0
11:19:55,728066.0,0.0,0.0
11:19:55,727968.0,0.0,0.0
11:19:55,728033.0,0.0,0.0
11:19:55,727971.0,0.0,0.0
11:19:55,727966.0,0.0,0.0
11:19:55,728029.0,0.0,0.0
11:19:55,727883.0,0.0,0.0
11:19:55,727995.0,0.0,0.0
11:19:55,727946.0,0.0,0.0
11:19:55,727923.0,0.0,0.0
11:19:55,728003.0,0.0,0.0
11:19:55,727900.0,0.0,0.0
11:19:55,727979.0,0.0,0.0
11:19:55,727927.0,0.0,0.0
11:19:55,727894.0,0.0,0.0
11:19:55,727949.0,0.0,0.0
11:19:55,727826.0,0.0,0.0
11:19:55,727943.0,0.0,0.0
11:19:55,727894.0,0.0,0.0
11:19:55,727878.0,0.0,0.0
11:19:55,727916.0,0.0,0.0
11:19:55,727816.0,0.0,0.0
11:19:55,727928.0,0.0,0.0
11:19:55,727861.0,0.0,0.0
11:19:55,727850.0,0.0,0.0
11:19:55,727910.0,0.0,0.0
11:19:55,727818.0,0.0,0.0
11:19:55,727891.0,0.0,0.0
11:19:55,727804.0,0.0,0.0
11:19:55,727818.0,0.0,0.0
11:19:55,727869.0,0.0,0.0
11:19:55,727715.0,0.0,0.0
11:19:55,727733.0,0.0,0.0
11:19:55,727683.0,0.0,0.0
11:19:55,727815.0,0.0,0.0
11:19:55,727953.0,0.0,0.0
11:19:55,727799.0,0.0,0.0
11:19:55,727838.0,0.0,0.0
11:19:55,727750.0,0.0,0.0
11:19:55,727747.0,0.0,0.0
11:19:55,727792.0,0.0,0.0
11:19:55,727671.0,0.0,0.0
11:19:55,727749.0,0.0,0.0
11:19:55,727688.0,0.0,0.0
11:19:55,727648.0,0.0,0.0
11:19:55,727701.0,0.0,0.0
11:19:55,727594.0,0.0,0.0
11:19:55,727658.0,0.0,0.0
11:19:55,727633.0,0.0,0.0
11:19:55,727619.0,0.0,0.0
11:19:55,727673.0,0.0,0.0
11:19:55,727561.0,0.0,0.0
11:19:55,727650.0,0.0,0.0
11:19:55,727571.0,0.0,0.0
11:19:55,727544.0,0.0,0.0
11:19:55,727614.0,0.0,0.0
11:19:55,727534.0,0.0,0.0
11:19:55,727594.0,0.0,0.0
11:19:55,727512.0,0.0,0.0
11:19:55,727499.0,0.0,0.0
11:19:55,727561.0,0.0,0.0
11:19:55,727442.0,0.0,0.0
11:19:55,727488.0,0.0,0.0
11:19:55,727418.0,0.0,0.0
11:19:55,727449.0,0.0,0.0
11:19:55,727543.0,0.0,0.0
11:19:55,727439.0,0.0,0.0
11:19:55,727533.0,0.0,0.0
11:19:55,727442.0,0.0,0.0
11:19:55,727444.0,0.0,0.0
11:19:55,727471.0,0.0,0.0
11:19:55,727359.0,0.0,0.0
11:19:55,727469.0,0.0,0.0
11:19:55,727364.0,0.0,0.0
11:19:55,727372.0,0.0,0.0
11:19:55,727426.0,0.0,0.0
11:19:55,727339.0,0.0,0.0
11:19:55,727410.0,0.0,0.0
11:19:55,727329.0,0.0,0.0
11:19:55,727336.0,0.0,0.0
11:19:55,727375.0,0.0,0.0
11:19:55,727257.0,0.0,0.0
11:19:55,727379.0,0.0,0.0
11:19:55,727311.0,0.0,0.0
11:19:55,727305.0,0.0,0.0
11:19:55,727331.0,0.0,0.0
11:19:55,727198.0,0.0,0.0
11:19:56,727307.0,0.0,0.0
11:19:56,727245.0,0.0,0.0
11:19:56,727227.0,0.0,0.0
11:19:56,727254.0,0.0,0.0
11:19:56,727149.0,0.0,0.0
11:19:56,727238.0,0.0,0.0
11:19:56,727161.0,0.0,0.0
11:19:56,727178.0,0.0,0.0
11:19:56,727227.0,0.0,0.0
11:19:56,727110.0,0.0,0.0
11:19:56,727231.0,0.0,0.0
11:19:56,727128.0,0.0,0.0
11:19:56,727105.0,0.0,0.0
11:19:56,727154.0,0.0,0.0
11:19:56,727058.0,0.0,0.0
11:19:56,727162.0,0.0,0.0
11:19:56,727066.0,0.0,0.0
11:19:56,727080.0,0.0,0.0
11:19:56,727118.0,0.0,0.0
11:19:56,727019.0,0.0,0.0
11:19:56,727116.0,0.0,0.0
11:19:56,727062.0,0.0,0.0
11:19:56,727038.0,0.0,0.0
11:19:56,727034.0,0.0,0.0
11:19:56,726983.0,0.0,0.0
11:19:56,727061.0,0.0,0.0
11:19:56,726964.0,0.0,0.0
11:19:56,726955.0,0.0,0.0
11:19:56,726985.0,0.0,0.0
11:19:56,726858.0,0.0,0.0
11:19:56,726956.0,0.0,0.0
11:19:56,726866.0,0.0,0.0
11:19:56,726879.0,0.0,0.0
11:19:56,726910.0,0.0,0.0
11:19:56,726822.0,0.0,0.0
11:19:56,726888.0,0.0,0.0
11:19:56,726791.0,0.0,0.0
11:19:56,726824.0,0.0,0.0
11:19:56,726842.0,0.0,0.0
11:19:56,726769.0,0.0,0.0
11:19:56,726848.0,0.0,0.0
11:19:56,726754.0,0.0,0.0
11:19:56,726765.0,0.0,0.0
11:19:56,726825.0,0.0,0.0
11:19:56,726744.0,0.0,0.0
11:19:56,726826.0,0.0,0.0
11:19:56,726713.0,0.0,0.0
11:19:56,726743.0,0.0,0.0
11:19:56,726776.0,0.0,0.0
11:19:56,726709.0,0.0,0.0
11:19:56,726794.0,0.0,0.0
11:19:56,726706.0,0.0,0.0
11:19:56,726708.0,0.0,0.0
11:19:56,726720.0,0.0,0.0
11:19:56,726645.0,0.0,0.0
11:19:56,726724.0,0.0,0.0
11:19:56,726618.0,0.0,0.0
11:19:56,726657.0,0.0,0.0
11:19:56,726664.0,0.0,0.0
11:19:56,726556.0,0.0,0.0
11:19:56,726579.0,0.0,0.0
11:19:56,726446.0,0.0,0.0
11:19:56,726586.0,0.0,0.0
11:19:56,726781.0,0.0,0.0
11:19:56,726672.0,0.0,0.0
11:19:56,726683.0,0.0,0.0
11:19:56,726539.0,0.0,0.0
11:19:56,726553.0,0.0,0.0
11:19:56,726571.0,0.0,0.0
11:19:56,726494.0,0.0,0.0
11:19:56,726572.0,0.0,0.0
11:19:56,726453.0,0.0,0.0
11:19:56,726478.0,0.0,0.0
11:19:56,726488.0,0.0,0.0
11:19:56,726402.0,0.0,0.0
11:19:56,726504.0,0.0,0.0
11:19:56,726396.0,0.0,0.0
11:19:56,726400.0,0.0,0.0
11:19:56,726410.0,0.0,0.0
11:19:56,726334.0,0.0,0.0
11:19:56,726463.0,0.0,0.0
11:19:56,726373.0,0.0,0.0
11:19:56,726368.0,0.0,0.0
11:19:56,726393.0,0.0,0.0
11:19:56,726311.0,0.0,0.0
11:19:56,726382.0,0.0,0.0
11:19:56,726261.0,0.0,0.0
11:19:56,726277.0,0.0,0.0
11:19:56,726308.0,0.0,0.0
11:19:56,726222.0,0.0,0.0
11:19:56,726286.0,0.0,0.0
11:19:56,726196.0,0.0,0.0
11:19:56,726244.0,0.0,0.0
11:19:56,726263.0,0.0,0.0
11:19:56,726170.0,0.0,0.0
11:19:56,726296.0,0.0,0.0
11:19:56,726211.0,0.0,0.0
11:19:56,726223.0,0.0,0.0
11:19:56,726239.0,0.0,0.0
11:19:56,726147.0,0.0,0.0
11:19:56,726234.0,0.0,0.0
11:19:56,726115.0,0.0,0.0
11:19:56,726148.0,0.0,0.0
11:19:56,726157.0,0.0,0.0
11:19:56,726101.0,0.0,0.0
11:19:56,726146.0,0.0,0.0
11:19:56,726071.0,0.0,0.0
11:19:56,726109.0,0.0,0.0
11:19:56,726141.0,0.0,0.0
11:19:56,726088.0,0.0,0.0
11:19:56,726176.0,0.0,0.0
11:19:56,726078.0,0.0,0.0
11:19:56,726106.0,0.0,0.0
11:19:56,726104.0,0.0,0.0
11:19:56,726018.0,0.0,0.0
11:19:56,726105.0,0.0,0.0
11:19:56,725968.0,0.0,0.0
11:19:56,726033.0,0.0,0.0
11:19:56,726044.0,0.0,0.0
11:19:56,725949.0,0.0,0.0
11:19:56,726025.0,0.0,0.0
11:19:56,725905.0,0.0,0.0
11:19:56,725929.0,0.0,0.0
11:19:56,725970.0,0.0,0.0
11:19:56,725906.0,0.0,0.0
11:19:57,726012.0,0.0,0.0
11:19:57,725916.0,0.0,0.0
11:19:57,725965.0,0.0,0.0
11:19:57,725953.0,0.0,0.0
11:19:57,725849.0,0.0,0.0
11:19:57,725988.0,0.0,0.0
11:19:57,725848.0,0.0,0.0
11:19:57,725889.0,0.0,0.0
11:19:57,725898.0,0.0,0.0
11:19:57,725809.0,0.0,0.0
11:19:57,725926.0,0.0,0.0
11:19:57,725812.0,0.0,0.0
11:19:57,725863.0,0.0,0.0
11:19:57,725863.0,0.0,0.0
11:19:57,725786.0,0.0,0.0
11:19:57,725896.0,0.0,0.0
11:19:57,725781.0,0.0,0.0
11:19:57,725836.0,0.0,0.0
11:19:57,725822.0,0.0,0.0
11:19:57,725751.0,0.0,0.0
11:19:57,725816.0,0.0,0.0
11:19:57,725741.0,0.0,0.0
11:19:57,725777.0,0.0,0.0
11:19:57,725731.0,0.0,0.0
11:19:57,725660.0,0.0,0.0
11:19:57,725763.0,0.0,0.0
11:19:57,725663.0,0.0,0.0
11:19:57,725723.0,0.0,0.0
11:19:57,725727.0,0.0,0.0
11:19:57,725641.0,0.0,0.0
11:19:57,725746.0,0.0,0.0
11:19:57,725641.0,0.0,0.0
11:19:57,725685.0,0.0,0.0
11:19:57,725689.0,0.0,0.0
11:19:57,725641.0,0.0,0.0
11:19:57,725745.0,0.0,0.0
11:19:57,725617.0,0.0,0.0
11:19:57,725655.0,0.0,0.0
11:19:57,725653.0,0.0,0.0
11:19:57,725594.0,0.0,0.0
11:19:57,725684.0,0.0,0.0
11:19:57,725611.0,0.0,0.0
11:19:57,725676.0,0.0,0.0
11:19:57,725657.0,0.0,0.0
11:19:57,725572.0,0.0,0.0
11:19:57,725673.0,0.0,0.0
11:19:57,725586.0,0.0,0.0
11:19:57,725656.0,0.0,0.0
11:19:57,725609.0,0.0,0.0
11:19:57,725529.0,0.0,0.0
11:19:57,725614.0,0.0,0.0
11:19:57,725508.0,0.0,0.0
11:19:57,725536.0,0.0,0.0
11:19:57,725490.0,0.0,0.0
11:19:57,725404.0,0.0,0.0
11:19:57,725618.0,0.0,0.0
11:19:57,725644.0,0.0,0.0
11:19:57,725721.0,0.0,0.0
11:19:57,725637.0,0.0,0.0
11:19:57,725532.0,0.0,0.0
11:19:57,725588.0,0.0,0.0
11:19:57,725490.0,0.0,0.0
11:19:57,725576.0,0.0,0.0
11:19:57,725534.0,0.0,0.0
11:19:57,725471.0,0.0,0.0
11:19:57,725564.0,0.0,0.0
11:19:57,725446.0,0.0,0.0
11:19:57,725508.0,0.0,0.0
11:19:57,725498.0,0.0,0.0
11:19:57,725452.0,0.0,0.0
11:19:57,725549.0,0.0,0.0
11:19:57,725466.0,0.0,0.0
11:19:57,725529.0,0.0,0.0
11:19:57,725475.0,0.0,0.0
11:19:57,725409.0,0.0,0.0
11:19:57,725493.0,0.0,0.0
11:19:57,725384.0,0.0,0.0
11:19:57,725449.0,0.0,0.0
11:19:57,725418.0,0.0,0.0
11:19:57,725353.0,0.0,0.0
11:19:57,725432.0,0.0,0.0
11:19:57,725358.0,0.0,0.0
11:19:57,725441.0,0.0,0.0
11:19:57,725433.0,0.0,0.0
11:19:57,725388.0,0.0,0.0
11:19:57,725474.0,0.0,0.0
11:19:57,725389.0,0.0,0.0
11:19:57,725455.0,0.0,0.0
11:19:57,725447.0,0.0,0.0
11:19:57,725376.0,0.0,0.0
11:19:57,725458.0,0.0,0.0
11:19:57,725369.0,0.0,0.0
11:19:57,725421.0,0.0,0.0
11:19:57,725382.0,0.0,0.0
11:19:57,725371.0,0.0,0.0
11:19:57,725475.0,0.0,0.0
11:19:57,725366.0,0.0,0.0
11:19:57,725416.0,0.0,0.0
11:19:57,725368.0,0.0,0.0
11:19:57,725320.0,0.0,0.0
11:19:57,725427.0,0.0,0.0
11:19:57,725330.0,0.0,0.0
11:19:57,725442.0,0.0,0.0
11:19:57,725404.0,0.0,0.0
11:19:57,725345.0,0.0,0.0
11:19:57,725433.0,0.0,0.0
11:19:57,725325.0,0.0,0.0
11:19:57,725379.0,0.0,0.0
11:19:57,725354.0,0.0,0.0
11:19:57,725305.0,0.0,0.0
11:19:57,725375.0,0.0,0.0
11:19:57,725281.0,0.0,0.0
11:19:57,725372.0,0.0,0.0
11:19:57,725330.0,0.0,0.0
11:19:57,725301.0,0.0,0.0
11:19:57,725384.0,0.0,0.0
11:19:57,725263.0,0.0,0.0
11:19:57,725361.0,0.0,0.0
11:19:57,725341.0,0.0,0.0
11:19:57,725259.0,0.0,0.0
11:19:57,725357.0,0.0,0.0
11:19:57,725235.0,0.0,0.0
11:19:57,725343.0,0.0,0.0
11:19:57,725332.0,0.0,0.0
11:19:57,725287.0,0.0,0.0
11:19:58,725346.0,0.0,0.0
11:19:58,725238.0,0.0,0.0
11:19:58,725369.0,0.0,0.0
11:19:58,725358.0,0.0,0.0
11:19:58,725324.0,0.0,0.0
11:19:58,725396.0,0.0,0.0
11:19:58,725287.0,0.0,0.0
11:19:58,725399.0,0.0,0.0
11:19:58,725393.0,0.0,0.0
11:19:58,725353.0,0.0,0.0
11:19:58,725408.0,0.0,0.0
11:19:58,725297.0,0.0,0.0
11:19:58,725389.0,0.0,0.0
11:19:58,725349.0,0.0,0.0
11:19:58,725350.0,0.0,0.0
11:19:58,725434.0,0.0,0.0
11:19:58,725347.0,0.0,0.0
11:19:58,725429.0,0.0,0.0
11:19:58,725408.0,0.0,0.0
11:19:58,725370.0,0.0,0.0
11:19:58,725488.0,0.0,0.0
11:19:58,725391.0,0.0,0.0
11:19:58,725490.0,0.0,0.0
11:19:58,725434.0,0.0,0.0
11:19:58,725410.0,0.0,0.0
11:19:58,725484.0,0.0,0.0
11:19:58,725363.0,0.0,0.0
11:19:58,725446.0,0.0,0.0
11:19:58,725411.0,0.0,0.0
11:19:58,725413.0,0.0,0.0
11:19:58,725524.0,0.0,0.0
11:19:58,725399.0,0.0,0.0
11:19:58,725478.0,0.0,0.0
11:19:58,725452.0,0.0,0.0
11:19:58,725445.0,0.0,0.0
11:19:58,725520.0,0.0,0.0
11:19:58,725378.0,0.0,0.0
11:19:58,725504.0,0.0,0.0
11:19:58,725472.0,0.0,0.0
11:19:58,725436.0,0.0,0.0
11:19:58,725535.0,0.0,0.0
11:19:58,725443.0,0.0,0.0
11:19:58,725536.0,0.0,0.0
11:19:58,725523.0,0.0,0.0
11:19:58,725484.0,0.0,0.0
11:19:58,725556.0,0.0,0.0
11:19:58,725519.0,0.0,0.0
11:19:58,725625.0,0.0,0.0
11:19:58,725584.0,0.0,0.0
11:19:58,725552.0,0.0,0.0
11:19:58,725593.0,0.0,0.0
11:19:58,725443.0,0.0,0.0
11:19:58,725634.0,0.0,0.0
11:19:58,725733.0,0.0,0.0
11:19:58,725768.0,0.0,0.0
11:19:58,725773.0,0.0,0.0
11:19:58,725635.0,0.0,0.0
11:19:58,725740.0,0.0,0.0
11:19:58,725698.0,0.0,0.0
11:19:58,725689.0,0.0,0.0
11:19:58,725761.0,0.0,0.0
11:19:58,725669.0,0.0,0.0
11:19:58,725755.0,0.0,0.0
11:19:58,725709.0,0.0,0.0
11:19:58,725726.0,0.0,0.0
11:19:58,725790.0,0.0,0.0
11:19:58,725683.0,0.0,0.0
11:19:58,725809.0,0.0,0.0
11:19:58,725761.0,0.0,0.0
11:19:58,725746.0,0.0,0.0
11:19:58,725866.0,0.0,0.0
11:19:58,725748.0,0.0,0.0
11:19:58,725834.0,0.0,0.0
11:19:58,725812.0,0.0,0.0
11:19:58,725806.0,0.0,0.0
11:19:58,725892.0,0.0,0.0
11:19:58,725778.0,0.0,0.0
11:19:58,725906.0,0.0,0.0
11:19:58,725908.0,0.0,0.0
11:19:58,725889.0,0.0,0.0
11:19:58,725962.0,0.0,0.0
11:19:58,725904.0,0.0,0.0
11:19:58,726017.0,0.0,0.0
11:19:58,725989.0,0.0,0.0
11:19:58,725969.0,0.0,0.0
11:19:58,726084.0,0.0,0.0
11:19:58,726007.0,0.0,0.0
11:19:58,726121.0,0.0,0.0
11:19:58,726098.0,0.0,0.0
11:19:58,726074.0,0.0,0.0
11:19:58,726121.0,0.0,0.0
11:19:58,726046.0,0.0,0.0
11:19:58,726152.0,0.0,0.0
11:19:58,726104.0,0.0,0.0
11:19:58,726086.0,0.0,0.0
11:19:58,726164.0,0.0,0.0
11:19:58,726084.0,0.0,0.0
11:19:58,726199.0,0.0,0.0
11:19:58,726191.0,0.0,0.0
11:19:58,726190.0,0.0,0.0
11:19:58,726256.0,0.0,0.0
11:19:58,726224.0,0.0,0.0
11:19:58,726356.0,0.0,0.0
11:19:58,726310.0,0.0,0.0
11:19:58,726271.0,0.0,0.0
11:19:58,726367.0,0.0,0.0
11:19:58,726285.0,0.0,0.0
11:19:58,726408.0,0.0,0.0
11:19:58,726350.0,0.0,0.0
11:19:58,726362.0,0.0,0.0
11:19:58,726400.0,0.0,0.0
11:19:58,726349.0,0.0,0.0
11:19:58,726480.0,0.0,0.0
11:19:58,726434.0,0.0,0.0
11:19:58,726459.0,0.0,0.0
11:19:58,726547.0,0.0,0.0
11:19:58,726456.0,0.0,0.0
11:19:58,726587.0,0.0,0.0
11:19:58,726541.0,0.0,0.0
11:19:58,726563.0,0.0,0.0
11:19:58,726633.0,0.0,0.0
11:19:58,726538.0,0.0,0.0
11:19:58,726662.0,0.0,0.0
11:19:58,726620.0,0.0,0.0
11:19:58,726648.0,0.0,0.0
11:19:59,726715.0,0.0,0.0
11:19:59,726630.0,0.0,0.0
11:19:59,726736.0,0.0,0.0
11:19:59,726713.0,0.0,0.0
11:19:59,726708.0,0.0,0.0
11:19:59,726760.0,0.0,0.0
11:19:59,726682.0,0.0,0.0
11:19:59,726780.0,0.0,0.0
11:19:59,726746.0,0.0,0.0
11:19:59,726783.0,0.0,0.0
11:19:59,726850.0,0.0,0.0
11:19:59,726729.0,0.0,0.0
11:19:59,726837.0,0.0,0.0
11:19:59,726787.0,0.0,0.0
11:19:59,726799.0,0.0,0.0
11:19:59,726869.0,0.0,0.0
11:19:59,726783.0,0.0,0.0
11:19:59,726879.0,0.0,0.0
11:19:59,726837.0,0.0,0.0
11:19:59,726865.0,0.0,0.0
11:19:59,726915.0,0.0,0.0
11:19:59,726825.0,0.0,0.0
11:19:59,726945.0,0.0,0.0
11:19:59,726900.0,0.0,0.0
11:19:59,726895.0,0.0,0.0
11:19:59,726941.0,0.0,0.0
11:19:59,726861.0,0.0,0.0
11:19:59,726961.0,0.0,0.0
11:19:59,726902.0,0.0,0.0
11:19:59,726946.0,0.0,0.0
11:19:59,726979.0,0.0,0.0
11:19:59,726883.0,0.0,0.0
11:19:59,726961.0,0.0,0.0
11:19:59,726896.0,0.0,0.0
11:19:59,726936.0,0.0,0.0
11:19:59,726981.0,0.0,0.0
11:19:59,726924.0,0.0,0.0
11:19:59,727017.0,0.0,0.0
11:19:59,726908.0,0.0,0.0
11:19:59,726925.0,0.0,0.0
11:19:59,726988.0,0.0,0.0
11:19:59,726886.0,0.0,0.0
11:19:59,727013.0,0.0,0.0
11:19:59,726943.0,0.0,0.0
11:19:59,726924.0,0.0,0.0
11:19:59,726974.0,0.0,0.0
11:19:59,726891.0,0.0,0.0
11:19:59,726944.0,0.0,0.0
11:19:59,726823.0,0.0,0.0
11:19:59,726871.0,0.0,0.0
11:19:59,727004.0,0.0,0.0
11:19:59,727058.0,0.0,0.0
11:19:59,727148.0,0.0,0.0
11:19:59,727019.0,0.0,0.0
11:19:59,727018.0,0.0,0.0
11:19:59,727029.0,0.0,0.0
11:19:59,726931.0,0.0,0.0
11:19:59,727046.0,0.0,0.0
11:19:59,726997.0,0.0,0.0
11:19:59,727013.0,0.0,0.0
11:19:59,727058.0,0.0,0.0
11:19:59,726959.0,0.0,0.0
11:19:59,727063.0,0.0,0.0
11:19:59,726976.0,0.0,0.0
11:19:59,727027.0,0.0,0.0
11:19:59,727076.0,0.0,0.0
11:19:59,726966.0,0.0,0.0
11:19:59,727074.0,0.0,0.0
11:19:59,726991.0,0.0,0.0
11:19:59,727000.0,0.0,0.0
11:19:59,727045.0,0.0,0.0
11:19:59,726975.0,0.0,0.0
11:19:59,727065.0,0.0,0.0
11:19:59,726991.0,0.0,0.0
11:19:59,727011.0,0.0,0.0
11:19:59,727041.0,0.0,0.0
11:19:59,726939.0,0.0,0.0
11:19:59,727060.0,0.0,0.0
11:19:59,726968.0,0.0,0.0
11:19:59,727024.0,0.0,0.0
11:19:59,727069.0,0.0,0.0
11:19:59,726968.0,0.0,0.0
11:19:59,727049.0,0.0,0.0
11:19:59,727008.0,0.0,0.0
11:19:59,727049.0,0.0,0.0
11:19:59,727104.0,0.0,0.0
11:19:59,727029.0,0.0,0.0
11:19:59,727105.0,0.0,0.0
11:19:59,727024.0,0.0,0.0
11:19:59,727044.0,0.0,0.0
11:19:59,727064.0,0.0,0.0
11:19:59,726998.0,0.0,0.0
11:19:59,727091.0,0.0,0.0
11:19:59,726991.0,0.0,0.0
11:19:59,727013.0,0.0,0.0
11:19:59,727072.0,0.0,0.0
11:19:59,726990.0,0.0,0.0
11:19:59,727101.0,0.0,0.0
11:19:59,727034.0,0.0,0.0
11:19:59,727042.0,0.0,0.0
11:19:59,727075.0,0.0,0.0
11:19:59,727016.0,0.0,0.0
11:19:59,727121.0,0.0,0.0
11:19:59,727028.0,0.0,0.0
11:19:59,727071.0,0.0,0.0
11:19:59,727098.0,0.0,0.0
11:19:59,727009.0,0.0,0.0
11:19:59,727086.0,0.0,0.0
11:19:59,727005.0,0.0,0.0
11:19:59,727037.0,0.0,0.0
11:19:59,727068.0,0.0,0.0
11:19:59,726968.0,0.0,0.0
11:19:59,727064.0,0.0,0.0
11:19:59,727019.0,0.0,0.0
11:19:59,727072.0,0.0,0.0
11:19:59,727062.0,0.0,0.0
11:19:59,726974.0,0.0,0.0
11:19:59,727081.0,0.0,0.0
11:19:59,727014.0,0.0,0.0
11:19:59,727045.0,0.0,0.0
11:19:59,727093.0,0.0,0.0
11:19:59,727007.0,0.0,0.0
11:19:59,727116.0,0.0,0.0
11:19:59,727022.0,0.0,0.0
11:19:59,727074.0,0.0,0.0
11:20:00,727131.0,0.0,0.0
11:20:00,727036.0,0.0,0.0
11:20:00,727133.0,0.0,0.0
11:20:00,727036.0,0.0,0.0
11:20:00,727060.0,0.0,0.0
11:20:00,727068.0,0.0,0.0
11:20:00,726995.0,0.0,0.0
11:20:00,727097.0,0.0,0.0
11:20:00,727053.0,0.0,0.0
11:20:00,727108.0,0.0,0.0
11:20:00,727126.0,0.0,0.0
11:20:00,727017.0,0.0,0.0
11:20:00,727118.0,0.0,0.0
11:20:00,727009.0,0.0,0.0
11:20:00,727042.0,0.0,0.0
11:20:00,727081.0,0.0,0.0
11:20:00,727035.0,0.0,0.0
11:20:00,727122.0,0.0,0.0
11:20:00,727028.0,0.0,0.0
11:20:00,727073.0,0.0,0.0
11:20:00,727082.0,0.0,0.0
11:20:00,727000.0,0.0,0.0
11:20:00,727128.0,0.0,0.0
11:20:00,727018.0,0.0,0.0
11:20:00,727065.0,0.0,0.0
11:20:00,727076.0,0.0,0.0
11:20:00,727003.0,0.0,0.0
11:20:00,727088.0,0.0,0.0
11:20:00,726978.0,0.0,0.0
11:20:00,727028.0,0.0,0.0
11:20:00,727091.0,0.0,0.0
11:20:00,727011.0,0.0,0.0
11:20:00,727126.0,0.0,0.0
11:20:00,727033.0,0.0,0.0
11:20:00,727066.0,0.0,0.0
11:20:00,727100.0,0.0,0.0
11:20:00,727038.0,0.0,0.0
11:20:00,727133.0,0.0,0.0
11:20:00,727014.0,0.0,0.0
11:20:00,727060.0,0.0,0.0
11:20:00,727108.0,0.0,0.0
11:20:00,727031.0,0.0,0.0
11:20:00,727111.0,0.0,0.0
11:20:00,727030.0,0.0,0.0
11:20:00,727108.0,0.0,0.0
11:20:00,727073.0,0.0,0.0
11:20:00,726928.0,0.0,0.0
11:20:00,726960.0,0.0,0.0
11:20:00,726894.0,0.0,0.0
11:20:00,727076.0,0.0,0.0
11:20:00,727169.0,0.0,0.0
11:20:00,727070.0,0.0,0.0
11:20:00,727082.0,0.0,0.0
11:20:00,726954.0,0.0,0.0
11:20:00,727015.0,0.0,0.0
11:20:00,727043.0,0.0,0.0
11:20:00,726977.0,0.0,0.0
11:20:00,727063.0,0.0,0.0
11:20:00,726938.0,0.0,0.0
11:20:00,726981.0,0.0,0.0
11:20:00,726970.0,0.0,0.0
11:20:00,726902.0,0.0,0.0
11:20:00,726965.0,0.0,0.0
11:20:00,726857.0,0.0,0.0
11:20:00,726897.0,0.0,0.0
11:20:00,726898.0,0.0,0.0
11:20:00,726853.0,0.0,0.0
11:20:00,726958.0,0.0,0.0
11:20:00,726840.0,0.0,0.0
11:20:00,726864.0,0.0,0.0
11:20:00,726854.0,0.0,0.0
11:20:00,726791.0,0.0,0.0
11:20:00,726886.0,0.0,0.0
11:20:00,726754.0,0.0,0.0
11:20:00,726803.0,0.0,0.0
11:20:00,726816.0,0.0,0.0
11:20:00,726739.0,0.0,0.0
11:20:00,726833.0,0.0,0.0
11:20:00,726730.0,0.0,0.0
11:20:00,726763.0,0.0,0.0
11:20:00,726751.0,0.0,0.0
11:20:00,726698.0,0.0,0.0
11:20:00,726789.0,0.0,0.0
11:20:00,726692.0,0.0,0.0
11:20:00,726751.0,0.0,0.0
11:20:00,726733.0,0.0,0.0
11:20:00,726638.0,0.0,0.0
11:20:00,726729.0,0.0,0.0
11:20:00,726638.0,0.0,0.0
11:20:00,726637.0,0.0,0.0
11:20:00,726608.0,0.0,0.0
11:20:00,726533.0,0.0,0.0
11:20:00,726598.0,0.0,0.0
11:20:00,726513.0,0.0,0.0
11:20:00,726574.0,0.0,0.0
11:20:00,726551.0,0.0,0.0
11:20:00,726468.0,0.0,0.0
11:20:00,726554.0,0.0,0.0
11:20:00,726441.0,0.0,0.0
11:20:00,726493.0,0.0,0.0
11:20:00,726493.0,0.0,0.0
11:20:00,726380.0,0.0,0.0
11:20:00,726441.0,0.0,0.0
11:20:00,726351.0,0.0,0.0
11:20:00,726399.0,0.0,0.0
11:20:00,726369.0,0.0,0.0
11:20:00,726316.0,0.0,0.0
11:20:00,726368.0,0.0,0.0
11:20:00,726236.0,0.0,0.0
11:20:00,726293.0,0.0,0.0
11:20:00,726284.0,0.0,0.0
11:20:00,726224.0,0.0,0.0
11:20:00,726309.0,0.0,0.0
11:20:00,726200.0,0.0,0.0
11:20:00,726250.0,0.0,0.0
11:20:00,726233.0,0.0,0.0
11:20:00,726169.0,0.0,0.0
11:20:00,726260.0,0.0,0.0
11:20:00,726122.0,0.0,0.0
11:20:00,726192.0,0.0,0.0
11:20:00,726162.0,0.0,0.0
11:20:00,726085.0,0.0,0.0
11:20:00,726157.0,0.0,0.0
11:20:00,726040.0,0.0,0.0
11:20:00,726097.0,0.0,0.0
11:20:01,726088.0,0.0,0.0
11:20:01,726018.0,0.0,0.0
11:20:01,726099.0,0.0,0.0
11:20:01,725959.0,0.0,0.0
11:20:01,726018.0,0.0,0.0
11:20:01,726006.0,0.0,0.0
11:20:01,725961.0,0.0,0.0
11:20:01,726050.0,0.0,0.0
11:20:01,725915.0,0.0,0.0
11:20:01,725946.0,0.0,0.0
11:20:01,725932.0,0.0,0.0
11:20:01,725877.0,0.0,0.0
11:20:01,725971.0,0.0,0.0
11:20:01,725838.0,0.0,0.0
11:20:01,725925.0,0.0,0.0
11:20:01,725884.0,0.0,0.0
11:20:01,725826.0,0.0,0.0
11:20:01,725907.0,0.0,0.0
11:20:01,725813.0,0.0,0.0
11:20:01,725885.0,0.0,0.0
11:20:01,725846.0,0.0,0.0
11:20:01,725783.0,0.0,0.0
11:20:01,725871.0,0.0,0.0
11:20:01,725769.0,0.0,0.0
11:20:01,725842.0,0.0,0.0
11:20:01,725809.0,0.0,0.0
11:20:01,725746.0,0.0,0.0
11:20:01,725818.0,0.0,0.0
11:20:01,725699.0,0.0,0.0
11:20:01,725748.0,0.0,0.0
11:20:01,725728.0,0.0,0.0
11:20:01,725711.0,0.0,0.0
11:20:01,725777.0,0.0,0.0
11:20:01,725648.0,0.0,0.0
11:20:01,725735.0,0.0,0.0
11:20:01,725698.0,0.0,0.0
11:20:01,725634.0,0.0,0.0
11:20:01,725723.0,0.0,0.0
11:20:01,725609.0,0.0,0.0
11:20:01,725667.0,0.0,0.0
11:20:01,725610.0,0.0,0.0
11:20:01,725588.0,0.0,0.0
11:20:01,725661.0,0.0,0.0
11:20:01,725539.0,0.0,0.0
11:20:01,725601.0,0.0,0.0
11:20:01,725504.0,0.0,0.0
11:20:01,725389.0,0.0,0.0
11:20:01,725494.0,0.0,0.0
11:20:01,725550.0,0.0,0.0
11:20:01,725706.0,0.0,0.0
11:20:01,725622.0,0.0,0.0
11:20:01,725504.0,0.0,0.0
11:20:01,725551.0,0.0,0.0
11:20:01,725398.0,0.0,0.0
11:20:01,725475.0,0.0,0.0
11:20:01,725454.0,0.0,0.0
11:20:01,725413.0,0.0,0.0
11:20:01,725501.0,0.0,0.0
11:20:01,725388.0,0.0,0.0
11:20:01,725462.0,0.0,0.0
11:20:01,725413.0,0.0,0.0
11:20:01,725349.0,0.0,0.0
11:20:01,725441.0,0.0,0.0
11:20:01,725336.0,0.0,0.0
11:20:01,725398.0,0.0,0.0
11:20:01,725351.0,0.0,0.0
11:20:01,725321.0,0.0,0.0
11:20:01,725387.0,0.0,0.0
11:20:01,725256.0,0.0,0.0
11:20:01,725320.0,0.0,0.0
11:20:01,725287.0,0.0,0.0
11:20:01,725263.0,0.0,0.0
11:20:01,725343.0,0.0,0.0
11:20:01,725223.0,0.0,0.0
11:20:01,725291.0,0.0,0.0
11:20:01,725242.0,0.0,0.0
11:20:01,725237.0,0.0,0.0
11:20:01,725301.0,0.0,0.0
11:20:01,725182.0,0.0,0.0
11:20:01,725277.0,0.0,0.0
11:20:01,725212.0,0.0,0.0
11:20:01,725194.0,0.0,0.0
11:20:01,725278.0,0.0,0.0
11:20:01,725141.0,0.0,0.0
11:20:01,725206.0,0.0,0.0
11:20:01,725172.0,0.0,0.0
11:20:01,725127.0,0.0,0.0
11:20:01,725213.0,0.0,0.0
11:20:01,725082.0,0.0,0.0
11:20:01,725166.0,0.0,0.0
11:20:01,725136.0,0.0,0.0
11:20:01,725094.0,0.0,0.0
11:20:01,725188.0,0.0,0.0
11:20:01,725072.0,0.0,0.0
11:20:01,725134.0,0.0,0.0
11:20:01,725097.0,0.0,0.0
11:20:01,725090.0,0.0,0.0
11:20:01,725186.0,0.0,0.0
11:20:01,725055.0,0.0,0.0
11:20:01,725134.0,0.0,0.0
11:20:01,725081.0,0.0,0.0
11:20:01,725052.0,0.0,0.0
11:20:01,725083.0,0.0,0.0
11:20:01,724953.0,0.0,0.0
11:20:01,725074.0,0.0,0.0
11:20:01,725026.0,0.0,0.0
11:20:01,724998.0,0.0,0.0
11:20:01,725074.0,0.0,0.0
11:20:01,724993.0,0.0,0.0
11:20:01,725066.0,0.0,0.0
11:20:01,724982.0,0.0,0.0
11:20:01,724970.0,0.0,0.0
11:20:01,725056.0,0.0,0.0
11:20:01,724983.0,0.0,0.0
11:20:01,725070.0,0.0,0.0
11:20:01,724991.0,0.0,0.0
11:20:01,724970.0,0.0,0.0
11:20:01,725025.0,0.0,0.0
11:20:01,724904.0,0.0,0.0
11:20:01,725004.0,0.0,0.0
11:20:01,724951.0,0.0,0.0
11:20:01,724953.0,0.0,0.0
11:20:01,725019.0,0.0,0.0
11:20:01,724904.0,0.0,0.0
11:20:01,724968.0,0.0,0.0
11:20:02,724922.0,0.0,0.0
11:20:02,724919.0,0.0,0.0
11:20:02,724989.0,0.0,0.0
11:20:02,724879.0,0.0,0.0
11:20:02,724964.0,0.0,0.0
11:20:02,724928.0,0.0,0.0
11:20:02,724905.0,0.0,0.0
11:20:02,724896.0,0.0,0.0
11:20:02,724815.0,0.0,0.0
11:20:02,724945.0,0.0,0.0
11:20:02,724883.0,0.0,0.0
11:20:02,724874.0,0.0,0.0
11:20:02,724958.0,0.0,0.0
11:20:02,724825.0,0.0,0.0
11:20:02,724914.0,0.0,0.0
11:20:02,724849.0,0.0,0.0
11:20:02,724864.0,0.0,0.0
11:20:02,724912.0,0.0,0.0
11:20:02,724782.0,0.0,0.0
11:20:02,724871.0,0.0,0.0
11:20:02,724837.0,0.0,0.0
11:20:02,724837.0,0.0,0.0
11:20:02,724884.0,0.0,0.0
11:20:02,724801.0,0.0,0.0
11:20:02,724898.0,0.0,0.0
11:20:02,724836.0,0.0,0.0
11:20:02,724810.0,0.0,0.0
11:20:02,724841.0,0.0,0.0
11:20:02,724736.0,0.0,0.0
11:20:02,724871.0,0.0,0.0
11:20:02,724819.0,0.0,0.0
11:20:02,724791.0,0.0,0.0
11:20:02,724845.0,0.0,0.0
11:20:02,724749.0,0.0,0.0
11:20:02,724872.0,0.0,0.0
11:20:02,724773.0,0.0,0.0
11:20:02,724788.0,0.0,0.0
11:20:02,724865.0,0.0,0.0
11:20:02,724740.0,0.0,0.0
11:20:02,724823.0,0.0,0.0
11:20:02,724753.0,0.0,0.0
11:20:02,724764.0,0.0,0.0
11:20:02,724830.0,0.0,0.0
11:20:02,724712.0,0.0,0.0
11:20:02,724769.0,0.0,0.0
11:20:02,724655.0,0.0,0.0
11:20:02,724634.0,0.0,0.0
11:20:02,724790.0,0.0,0.0
11:20:02,724814.0,0.0,0.0
11:20:02,724967.0,0.0,0.0
11:20:02,724816.0,0.0,0.0
11:20:02,724758.0,0.0,0.0
11:20:02,724794.0,0.0,0.0
11:20:02,724685.0,0.0,0.0
11:20:02,724816.0,0.0,0.0
11:20:02,724741.0,0.0,0.0
11:20:02,724757.0,0.0,0.0
11:20:02,724788.0,0.0,0.0
11:20:02,724692.0,0.0,0.0
11:20:02,724791.0,0.0,0.0
11:20:02,724743.0,0.0,0.0
11:20:02,724743.0,0.0,0.0
11:20:02,724793.0,0.0,0.0
11:20:02,724673.0,0.0,0.0
11:20:02,724797.0,0.0,0.0
11:20:02,724731.0,0.0,0.0
11:20:02,724727.0,0.0,0.0
11:20:02,724776.0,0.0,0.0
11:20:02,724664.0,0.0,0.0
11:20:02,724782.0,0.0,0.0
11:20:02,724697.0,0.0,0.0
11:20:02,724681.0,0.0,0.0
11:20:02,724728.0,0.0,0.0
11:20:02,724646.0,0.0,0.0
11:20:02,724742.0,0.0,0.0
11:20:02,724656.0,0.0,0.0
11:20:02,724688.0,0.0,0.0
11:20:02,724733.0,0.0,0.0
11:20:02,724628.0,0.0,0.0
11:20:02,724741.0,0.0,0.0
11:20:02,724693.0,0.0,0.0
11:20:02,724698.0,0.0,0.0
11:20:02,724749.0,0.0,0.0
11:20:02,724648.0,0.0,0.0
11:20:02,724762.0,0.0,0.0
11:20:02,724684.0,0.0,0.0
11:20:02,724696.0,0.0,0.0
11:20:02,724738.0,0.0,0.0
11:20:02,724629.0,0.0,0.0
11:20:02,724741.0,0.0,0.0
11:20:02,724644.0,0.0,0.0
11:20:02,724638.0,0.0,0.0
11:20:02,724729.0,0.0,0.0
11:20:02,724633.0,0.0,0.0
11:20:02,724703.0,0.0,0.0
11:20:02,724628.0,0.0,0.0
11:20:02,724641.0,0.0,0.0
11:20:02,724723.0,0.0,0.0
11:20:02,724603.0,0.0,0.0
11:20:02,724691.0,0.0,0.0
11:20:02,724591.0,0.0,0.0
11:20:02,724625.0,0.0,0.0
11:20:02,724706.0,0.0,0.0
11:20:02,724593.0,0.0,0.0
11:20:02,724654.0,0.0,0.0
11:20:02,724606.0,0.0,0.0
11:20:02,724618.0,0.0,0.0
11:20:02,724641.0,0.0,0.0
11:20:02,724546.0,0.0,0.0
11:20:02,724665.0,0.0,0.0
11:20:02,724558.0,0.0,0.0
11:20:02,724599.0,0.0,0.0
11:20:02,724654.0,0.0,0.0
11:20:02,724554.0,0.0,0.0
11:20:02,724650.0,0.0,0.0
11:20:02,724585.0,0.0,0.0
11:20:02,724614.0,0.0,0.0
11:20:02,724630.0,0.0,0.0
11:20:02,724546.0,0.0,0.0
11:20:02,724662.0,0.0,0.0
11:20:02,724562.0,0.0,0.0
11:20:02,724549.0,0.0,0.0
11:20:02,724608.0,0.0,0.0
11:20:02,724546.0,0.0,0.0
11:20:02,724657.0,0.0,0.0
11:20:03,724567.0,0.0,0.0
11:20:03,724601.0,0.0,0.0
11:20:03,724639.0,0.0,0.0
11:20:03,724546.0,0.0,0.0
11:20:03,724632.0,0.0,0.0
11:20:03,724553.0,0.0,0.0
11:20:03,724569.0,0.0,0.0
11:20:03,724604.0,0.0,0.0
11:20:03,724514.0,0.0,0.0
11:20:03,724621.0,0.0,0.0
11:20:03,724553.0,0.0,0.0
11:20:03,724581.0,0.0,0.0
11:20:03,724598.0,0.0,0.0
11:20:03,724512.0,0.0,0.0
11:20:03,724614.0,0.0,0.0
11:20:03,724528.0,0.0,0.0
11:20:03,724566.0,0.0,0.0
11:20:03,724596.0,0.0,0.0
11:20:03,724523.0,0.0,0.0
11:20:03,724617.0,0.0,0.0
11:20:03,724506.0,0.0,0.0
11:20:03,724553.0,0.0,0.0
11:20:03,724582.0,0.0,0.0
11:20:03,724494.0,0.0,0.0
11:20:03,724592.0,0.0,0.0
11:20:03,724503.0,0.0,0.0
11:20:03,724539.0,0.0,0.0
11:20:03,724575.0,0.0,0.0
11:20:03,724491.0,0.0,0.0
11:20:03,724611.0,0.0,0.0
11:20:03,724524.0,0.0,0.0
11:20:03,724533.0,0.0,0.0
11:20:03,724566.0,0.0,0.0
11:20:03,724494.0,0.0,0.0
11:20:03,724576.0,0.0,0.0
11:20:03,724499.0,0.0,0.0
11:20:03,724551.0,0.0,0.0
11:20:03,724554.0,0.0,0.0
11:20:03,724456.0,0.0,0.0
11:20:03,724578.0,0.0,0.0
11:20:03,724496.0,0.0,0.0
11:20:03,724514.0,0.0,0.0
11:20:03,724504.0,0.0,0.0
11:20:03,724382.0,0.0,0.0
11:20:03,724431.0,0.0,0.0
11:20:03,724414.0,0.0,0.0
11:20:03,724591.0,0.0,0.0
11:20:03,724670.0,0.0,0.0
11:20:03,724541.0,0.0,0.0
11:20:03,724590.0,0.0,0.0
11:20:03,724487.0,0.0,0.0
11:20:03,724513.0,0.0,0.0
11:20:03,724524.0,0.0,0.0
11:20:03,724460.0,0.0,0.0
11:20:03,724581.0,0.0,0.0
11:20:03,724498.0,0.0,0.0
11:20:03,724528.0,0.0,0.0
11:20:03,724533.0,0.0,0.0
11:20:03,724436.0,0.0,0.0
11:20:03,724541.0,0.0,0.0
11:20:03,724481.0,0.0,0.0
11:20:03,724521.0,0.0,0.0
11:20:03,724526.0,0.0,0.0
11:20:03,724474.0,0.0,0.0
11:20:03,724564.0,0.0,0.0
11:20:03,724434.0,0.0,0.0
11:20:03,724486.0,0.0,0.0
11:20:03,724536.0,0.0,0.0
11:20:03,724459.0,0.0,0.0
11:20:03,724526.0,0.0,0.0
11:20:03,724417.0,0.0,0.0
11:20:03,724452.0,0.0,0.0
11:20:03,724493.0,0.0,0.0
11:20:03,724408.0,0.0,0.0
11:20:03,724546.0,0.0,0.0
11:20:03,724454.0,0.0,0.0
11:20:03,724492.0,0.0,0.0
11:20:03,724528.0,0.0,0.0
11:20:03,724485.0,0.0,0.0
11:20:03,724599.0,0.0,0.0
11:20:03,724504.0,0.0,0.0
11:20:03,724556.0,0.0,0.0
11:20:03,724571.0,0.0,0.0
11:20:03,724523.0,0.0,0.0
11:20:03,724607.0,0.0,0.0
11:20:03,724516.0,0.0,0.0
11:20:03,724556.0,0.0,0.0
11:20:03,724579.0,0.0,0.0
11:20:03,724501.0,0.0,0.0
11:20:03,724626.0,0.0,0.0
11:20:03,724534.0,0.0,0.0
11:20:03,724606.0,0.0,0.0
11:20:03,724626.0,0.0,0.0
11:20:03,724561.0,0.0,0.0
11:20:03,724668.0,0.0,0.0
11:20:03,724574.0,0.0,0.0
11:20:03,724642.0,0.0,0.0
11:20:03,724654.0,0.0,0.0
11:20:03,724563.0,0.0,0.0
11:20:03,724674.0,0.0,0.0
11:20:03,724581.0,0.0,0.0
11:20:03,724650.0,0.0,0.0
11:20:03,724668.0,0.0,0.0
11:20:03,724603.0,0.0,0.0
11:20:03,724714.0,0.0,0.0
11:20:03,724638.0,0.0,0.0
11:20:03,724719.0,0.0,0.0
11:20:03,724728.0,0.0,0.0
11:20:03,724677.0,0.0,0.0
11:20:03,724771.0,0.0,0.0
11:20:03,724681.0,0.0,0.0
11:20:03,724745.0,0.0,0.0
11:20:03,724786.0,0.0,0.0
11:20:03,724752.0,0.0,0.0
11:20:03,724879.0,0.0,0.0
11:20:03,724780.0,0.0,0.0
11:20:03,724849.0,0.0,0.0
11:20:03,724869.0,0.0,0.0
11:20:03,724805.0,0.0,0.0
11:20:03,724901.0,0.0,0.0
11:20:03,724838.0,0.0,0.0
11:20:03,724936.0,0.0,0.0
11:20:03,724928.0,0.0,0.0
11:20:03,724854.0,0.0,0.0
11:20:03,724983.0,0.0,0.0
11:20:04,724914.0,0.0,0.0
11:20:04,724988.0,0.0,0.0
11:20:04,725010.0,0.0,0.0
11:20:04,724962.0,0.0,0.0
11:20:04,725051.0,0.0,0.0
11:20:04,724960.0,0.0,0.0
11:20:04,725074.0,0.0,0.0
11:20:04,725076.0,0.0,0.0
11:20:04,725008.0,0.0,0.0
11:20:04,725123.0,0.0,0.0
11:20:04,725034.0,0.0,0.0
11:20:04,725103.0,0.0,0.0
11:20:04,725096.0,0.0,0.0
11:20:04,725047.0,0.0,0.0
11:20:04,725176.0,0.0,0.0
11:20:04,725103.0,0.0,0.0
11:20:04,725174.0,0.0,0.0
11:20:04,725169.0,0.0,0.0
11:20:04,725134.0,0.0,0.0
11:20:04,725281.0,0.0,0.0
11:20:04,725170.0,0.0,0.0
11:20:04,725247.0,0.0,0.0
11:20:04,725259.0,0.0,0.0
11:20:04,725211.0,0.0,0.0
11:20:04,725338.0,0.0,0.0
11:20:04,725236.0,0.0,0.0
11:20:04,725337.0,0.0,0.0
11:20:04,725329.0,0.0,0.0
11:20:04,725304.0,0.0,0.0
11:20:04,725416.0,0.0,0.0
11:20:04,725324.0,0.0,0.0
11:20:04,725404.0,0.0,0.0
11:20:04,725395.0,0.0,0.0
11:20:04,725353.0,0.0,0.0
11:20:04,725454.0,0.0,0.0
11:20:04,725357.0,0.0,0.0
11:20:04,725459.0,0.0,0.0
11:20:04,725448.0,0.0,0.0
11:20:04,725377.0,0.0,0.0
11:20:04,725436.0,0.0,0.0
11:20:04,725323.0,0.0,0.0
11:20:04,725542.0,0.0,0.0
11:20:04,725647.0,0.0,0.0
11:20:04,725602.0,0.0,0.0
11:20:04,725642.0,0.0,0.0
11:20:04,725520.0,0.0,0.0
11:20:04,725570.0,0.0,0.0
11:20:04,725556.0,0.0,0.0
11:20:04,725525.0,0.0,0.0
11:20:04,725633.0,0.0,0.0
11:20:04,725518.0,0.0,0.0
11:20:04,725596.0,0.0,0.0
11:20:04,725590.0,0.0,0.0
11:20:04,725576.0,0.0,0.0
11:20:04,725698.0,0.0,0.0
11:20:04,725618.0,0.0,0.0
11:20:04,725674.0,0.0,0.0
11:20:04,725680.0,0.0,0.0
11:20:04,725664.0,0.0,0.0
11:20:04,725764.0,0.0,0.0
11:20:04,725683.0,0.0,0.0
11:20:04,725796.0,0.0,0.0
11:20:04,725814.0,0.0,0.0
11:20:04,725748.0,0.0,0.0
11:20:04,725829.0,0.0,0.0
11:20:04,725756.0,0.0,0.0
11:20:04,725814.0,0.0,0.0
11:20:04,725801.0,0.0,0.0
11:20:04,725783.0,0.0,0.0
11:20:04,725874.0,0.0,0.0
11:20:04,725806.0,0.0,0.0
11:20:04,725895.0,0.0,0.0
11:20:04,725873.0,0.0,0.0
11:20:04,725876.0,0.0,0.0
11:20:04,726011.0,0.0,0.0
11:20:04,725923.0,0.0,0.0
11:20:04,726011.0,0.0,0.0
11:20:04,725986.0,0.0,0.0
11:20:04,725937.0,0.0,0.0
11:20:04,726064.0,0.0,0.0
11:20:04,725964.0,0.0,0.0
11:20:04,726029.0,0.0,0.0
11:20:04,726016.0,0.0,0.0
11:20:04,725981.0,0.0,0.0
11:20:04,726103.0,0.0,0.0
11:20:04,726000.0,0.0,0.0
11:20:04,726106.0,0.0,0.0
11:20:04,726124.0,0.0,0.0
11:20:04,726105.0,0.0,0.0
11:20:04,726188.0,0.0,0.0
11:20:04,726112.0,0.0,0.0
11:20:04,726217.0,0.0,0.0
11:20:04,726198.0,0.0,0.0
11:20:04,726156.0,0.0,0.0
11:20:04,726264.0,0.0,0.0
11:20:04,726182.0,0.0,0.0
11:20:04,726266.0,0.0,0.0
11:20:04,726258.0,0.0,0.0
11:20:04,726202.0,0.0,0.0
11:20:04,726312.0,0.0,0.0
11:20:04,726224.0,0.0,0.0
11:20:04,726343.0,0.0,0.0
11:20:04,726321.0,0.0,0.0
11:20:04,726296.0,0.0,0.0
11:20:04,726349.0,0.0,0.0
11:20:04,726289.0,0.0,0.0
11:20:04,726403.0,0.0,0.0
11:20:04,726354.0,0.0,0.0
11:20:04,726322.0,0.0,0.0
11:20:04,726436.0,0.0,0.0
11:20:04,726368.0,0.0,0.0
11:20:04,726466.0,0.0,0.0
11:20:04,726418.0,0.0,0.0
11:20:04,726387.0,0.0,0.0
11:20:04,726522.0,0.0,0.0
11:20:04,726457.0,0.0,0.0
11:20:04,726532.0,0.0,0.0
11:20:04,726513.0,0.0,0.0
11:20:04,726488.0,0.0,0.0
11:20:04,726593.0,0.0,0.0
11:20:04,726507.0,0.0,0.0
11:20:04,726600.0,0.0,0.0
11:20:04,726570.0,0.0,0.0
11:20:04,726562.0,0.0,0.0
11:20:04,726649.0,0.0,0.0
11:20:05,726554.0,0.0,0.0
11:20:05,726698.0,0.0,0.0
11:20:05,726661.0,0.0,0.0
11:20:05,726614.0,0.0,0.0
11:20:05,726695.0,0.0,0.0
11:20:05,726624.0,0.0,0.0
11:20:05,726728.0,0.0,0.0
11:20:05,726687.0,0.0,0.0
11:20:05,726688.0,0.0,0.0
11:20:05,726773.0,0.0,0.0
11:20:05,726703.0,0.0,0.0
11:20:05,726809.0,0.0,0.0
11:20:05,726771.0,0.0,0.0
11:20:05,726749.0,0.0,0.0
11:20:05,726839.0,0.0,0.0
11:20:05,726752.0,0.0,0.0
11:20:05,726846.0,0.0,0.0
11:20:05,726833.0,0.0,0.0
11:20:05,726834.0,0.0,0.0
11:20:05,726911.0,0.0,0.0
11:20:05,726816.0,0.0,0.0
11:20:05,726949.0,0.0,0.0
11:20:05,726911.0,0.0,0.0
11:20:05,726910.0,0.0,0.0
11:20:05,726999.0,0.0,0.0
11:20:05,726916.0,0.0,0.0
11:20:05,727032.0,0.0,0.0
11:20:05,726960.0,0.0,0.0
11:20:05,726961.0,0.0,0.0
11:20:05,727083.0,0.0,0.0
11:20:05,726968.0,0.0,0.0
11:20:05,727004.0,0.0,0.0
11:20:05,726928.0,0.0,0.0
11:20:05,727015.0,0.0,0.0
11:20:05,727265.0,0.0,0.0
11:20:05,727176.0,0.0,0.0
11:20:05,727209.0,0.0,0.0
11:20:05,727118.0,0.0,0.0
11:20:05,727110.0,0.0,0.0
11:20:05,727183.0,0.0,0.0
11:20:05,727093.0,0.0,0.0
11:20:05,727202.0,0.0,0.0
11:20:05,727141.0,0.0,0.0
11:20:05,727136.0,0.0,0.0
11:20:05,727241.0,0.0,0.0
11:20:05,727113.0,0.0,0.0
11:20:05,727228.0,0.0,0.0
11:20:05,727189.0,0.0,0.0
11:20:05,727169.0,0.0,0.0
11:20:05,727248.0,0.0,0.0
11:20:05,727139.0,0.0,0.0
11:20:05,727269.0,0.0,0.0
11:20:05,727207.0,0.0,0.0
11:20:05,727188.0,0.0,0.0
11:20:05,727254.0,0.0,0.0
11:20:05,727173.0,0.0,0.0
11:20:05,727254.0,0.0,0.0
11:20:05,727214.0,0.0,0.0
11:20:05,727214.0,0.0,0.0
11:20:05,727242.0,0.0,0.0
11:20:05,727133.0,0.0,0.0
11:20:05,727235.0,0.0,0.0
11:20:05,727189.0,0.0,0.0
11:20:05,727183.0,0.0,0.0
11:20:05,727260.0,0.0,0.0
11:20:05,727148.0,0.0,0.0
11:20:05,727265.0,0.0,0.0
11:20:05,727200.0,0.0,0.0
11:20:05,727233.0,0.0,0.0
11:20:05,727268.0,0.0,0.0
11:20:05,727146.0,0.0,0.0
11:20:05,727267.0,0.0,0.0
11:20:05,727214.0,0.0,0.0
11:20:05,727218.0,0.0,0.0
11:20:05,727279.0,0.0,0.0
11:20:05,727182.0,0.0,0.0
11:20:05,727279.0,0.0,0.0
11:20:05,727191.0,0.0,0.0
11:20:05,727208.0,0.0,0.0
11:20:05,727284.0,0.0,0.0
11:20:05,727214.0,0.0,0.0
11:20:05,727309.0,0.0,0.0
11:20:05,727228.0,0.0,0.0
11:20:05,727243.0,0.0,0.0
11:20:05,727303.0,0.0,0.0
11:20:05,727179.0,0.0,0.0
11:20:05,727300.0,0.0,0.0
11:20:05,727223.0,0.0,0.0
11:20:05,727219.0,0.0,0.0
11:20:05,727272.0,0.0,0.0
11:20:05,727169.0,0.0,0.0
11:20:05,727296.0,0.0,0.0
11:20:05,727244.0,0.0,0.0
11:20:05,727233.0,0.0,0.0
11:20:05,727296.0,0.0,0.0
11:20:05,727181.0,0.0,0.0
11:20:05,727261.0,0.0,0.0
11:20:05,727226.0,0.0,0.0
11:20:05,727236.0,0.0,0.0
11:20:05,727279.0,0.0,0.0
11:20:05,727176.0,0.0,0.0
11:20:05,727298.0,0.0,0.0
11:20:05,727228.0,0.0,0.0
11:20:05,727216.0,0.0,0.0
11:20:05,727269.0,0.0,0.0
11:20:05,727197.0,0.0,0.0
11:20:05,727295.0,0.0,0.0
11:20:05,727229.0,0.0,0.0
11:20:05,727251.0,0.0,0.0
11:20:05,727291.0,0.0,0.0
11:20:05,727183.0,0.0,0.0
11:20:05,727291.0,0.0,0.0
11:20:05,727248.0,0.0,0.0
11:20:05,727261.0,0.0,0.0
11:20:05,727310.0,0.0,0.0
11:20:05,727195.0,0.0,0.0
11:20:05,727295.0,0.0,0.0
11:20:05,727234.0,0.0,0.0
11:20:05,727238.0,0.0,0.0
11:20:05,727296.0,0.0,0.0
11:20:05,727181.0,0.0,0.0
11:20:05,727300.0,0.0,0.0
11:20:05,727208.0,0.0,0.0
11:20:05,727227.0,0.0,0.0
11:20:06,727260.0,0.0,0.0
11:20:06,727149.0,0.0,0.0
11:20:06,727262.0,0.0,0.0
11:20:06,727206.0,0.0,0.0
11:20:06,727199.0,0.0,0.0
11:20:06,727223.0,0.0,0.0
11:20:06,727166.0,0.0,0.0
11:20:06,727252.0,0.0,0.0
11:20:06,727173.0,0.0,0.0
11:20:06,727165.0,0.0,0.0
11:20:06,727226.0,0.0,0.0
11:20:06,727111.0,0.0,0.0
11:20:06,727214.0,0.0,0.0
11:20:06,727155.0,0.0,0.0
11:20:06,727163.0,0.0,0.0
11:20:06,727181.0,0.0,0.0
11:20:06,727073.0,0.0,0.0
11:20:06,727152.0,0.0,0.0
11:20:06,727041.0,0.0,0.0
11:20:06,727043.0,0.0,0.0
11:20:06,727067.0,0.0,0.0
11:20:06,727096.0,0.0,0.0
11:20:06,727329.0,0.0,0.0
11:20:06,727193.0,0.0,0.0
11:20:06,727131.0,0.0,0.0
11:20:06,727158.0,0.0,0.0
11:20:06,727051.0,0.0,0.0
11:20:06,727146.0,0.0,0.0
11:20:06,727089.0,0.0,0.0
11:20:06,727092.0,0.0,0.0
11:20:06,727121.0,0.0,0.0
11:20:06,727038.0,0.0,0.0
11:20:06,727112.0,0.0,0.0
11:20:06,727036.0,0.0,0.0
11:20:06,727055.0,0.0,0.0
11:20:06,727052.0,0.0,0.0
11:20:06,726963.0,0.0,0.0
11:20:06,727074.0,0.0,0.0
11:20:06,726987.0,0.0,0.0
11:20:06,727004.0,0.0,0.0
11:20:06,727014.0,0.0,0.0
11:20:06,726914.0,0.0,0.0
11:20:06,727008.0,0.0,0.0
11:20:06,726926.0,0.0,0.0
11:20:06,726939.0,0.0,0.0
11:20:06,726931.0,0.0,0.0
11:20:06,726796.0,0.0,0.0
11:20:06,726920.0,0.0,0.0
11:20:06,726830.0,0.0,0.0
11:20:06,726862.0,0.0,0.0
11:20:06,726870.0,0.0,0.0
11:20:06,726771.0,0.0,0.0
11:20:06,726901.0,0.0,0.0
11:20:06,726816.0,0.0,0.0
11:20:06,726822.0,0.0,0.0
11:20:06,726829.0,0.0,0.0
11:20:06,726715.0,0.0,0.0
11:20:06,726838.0,0.0,0.0
11:20:06,726728.0,0.0,0.0
11:20:06,726742.0,0.0,0.0
11:20:06,726757.0,0.0,0.0
11:20:06,726653.0,0.0,0.0
11:20:06,726726.0,0.0,0.0
11:20:06,726629.0,0.0,0.0
11:20:06,726655.0,0.0,0.0
11:20:06,726680.0,0.0,0.0
11:20:06,726559.0,0.0,0.0
11:20:06,726630.0,0.0,0.0
11:20:06,726559.0,0.0,0.0
11:20:06,726596.0,0.0,0.0
11:20:06,726594.0,0.0,0.0
11:20:06,726463.0,0.0,0.0
11:20:06,726541.0,0.0,0.0
11:20:06,726453.0,0.0,0.0
11:20:06,726441.0,0.0,0.0
11:20:06,726436.0,0.0,0.0
11:20:06,726337.0,0.0,0.0
11:20:06,726433.0,0.0,0.0
11:20:06,726343.0,0.0,0.0
11:20:06,726348.0,0.0,0.0
11:20:06,726393.0,0.0,0.0
11:20:06,726304.0,0.0,0.0
11:20:06,726391.0,0.0,0.0
11:20:06,726251.0,0.0,0.0
11:20:06,726279.0,0.0,0.0
11:20:06,726295.0,0.0,0.0
11:20:06,726227.0,0.0,0.0
11:20:06,726294.0,0.0,0.0
11:20:06,726195.0,0.0,0.0
11:20:06,726224.0,0.0,0.0
11:20:06,726250.0,0.0,0.0
11:20:06,726133.0,0.0,0.0
11:20:06,726234.0,0.0,0.0
11:20:06,726149.0,0.0,0.0
11:20:06,726178.0,0.0,0.0
11:20:06,726189.0,0.0,0.0
11:20:06,726076.0,0.0,0.0
11:20:06,726171.0,0.0,0.0
11:20:06,726073.0,0.0,0.0
11:20:06,726117.0,0.0,0.0
11:20:06,726118.0,0.0,0.0
11:20:06,726009.0,0.0,0.0
11:20:06,726090.0,0.0,0.0
11:20:06,726007.0,0.0,0.0
11:20:06,726054.0,0.0,0.0
11:20:06,726057.0,0.0,0.0
11:20:06,725951.0,0.0,0.0
11:20:06,726061.0,0.0,0.0
11:20:06,725956.0,0.0,0.0
11:20:06,725949.0,0.0,0.0
11:20:06,725973.0,0.0,0.0
11:20:06,725900.0,0.0,0.0
11:20:06,725984.0,0.0,0.0
11:20:06,725915.0,0.0,0.0
11:20:06,725953.0,0.0,0.0
11:20:06,725930.0,0.0,0.0
11:20:06,725824.0,0.0,0.0
11:20:06,725923.0,0.0,0.0
11:20:06,725832.0,0.0,0.0
11:20:06,725861.0,0.0,0.0
11:20:06,725873.0,0.0,0.0
11:20:06,725786.0,0.0,0.0
11:20:06,725851.0,0.0,0.0
11:20:06,725753.0,0.0,0.0
11:20:06,725779.0,0.0,0.0
11:20:07,725780.0,0.0,0.0
11:20:07,725673.0,0.0,0.0
11:20:07,725768.0,0.0,0.0
11:20:07,725668.0,0.0,0.0
11:20:07,725679.0,0.0,0.0
11:20:07,725670.0,0.0,0.0
11:20:07,725552.0,0.0,0.0
11:20:07,725608.0,0.0,0.0
11:20:07,725508.0,0.0,0.0
11:20:07,725689.0,0.0,0.0
11:20:07,725806.0,0.0,0.0
11:20:07,725708.0,0.0,0.0
11:20:07,725701.0,0.0,0.0
11:20:07,725576.0,0.0,0.0
11:20:07,725604.0,0.0,0.0
11:20:07,725578.0,0.0,0.0
11:20:07,725523.0,0.0,0.0
11:20:07,725611.0,0.0,0.0
11:20:07,725444.0,0.0,0.0
11:20:07,725470.0,0.0,0.0
11:20:07,725477.0,0.0,0.0
11:20:07,725404.0,0.0,0.0
11:20:07,725483.0,0.0,0.0
11:20:07,725367.0,0.0,0.0
11:20:07,725414.0,0.0,0.0
11:20:07,725407.0,0.0,0.0
11:20:07,725329.0,0.0,0.0
11:20:07,725408.0,0.0,0.0
11:20:07,725299.0,0.0,0.0
11:20:07,725334.0,0.0,0.0
11:20:07,725344.0,0.0,0.0
11:20:07,725271.0,0.0,0.0
11:20:07,725355.0,0.0,0.0
11:20:07,725252.0,0.0,0.0
11:20:07,725294.0,0.0,0.0
11:20:07,725268.0,0.0,0.0
11:20:07,725186.0,0.0,0.0
11:20:07,725261.0,0.0,0.0
11:20:07,725179.0,0.0,0.0
11:20:07,725222.0,0.0,0.0
11:20:07,725221.0,0.0,0.0
11:20:07,725167.0,0.0,0.0
11:20:07,725271.0,0.0,0.0
11:20:07,725158.0,0.0,0.0
11:20:07,725206.0,0.0,0.0
11:20:07,725199.0,0.0,0.0
11:20:07,725135.0,0.0,0.0
11:20:07,725244.0,0.0,0.0
11:20:07,725111.0,0.0,0.0
11:20:07,725173.0,0.0,0.0
11:20:07,725153.0,0.0,0.0
11:20:07,725096.0,0.0,0.0
11:20:07,725165.0,0.0,0.0
11:20:07,725066.0,0.0,0.0
11:20:07,725115.0,0.0,0.0
11:20:07,725101.0,0.0,0.0
11:20:07,725054.0,0.0,0.0
11:20:07,725151.0,0.0,0.0
11:20:07,725040.0,0.0,0.0
11:20:07,725097.0,0.0,0.0
11:20:07,725088.0,0.0,0.0
11:20:07,725024.0,0.0,0.0
11:20:07,725118.0,0.0,0.0
11:20:07,724973.0,0.0,0.0
11:20:07,725051.0,0.0,0.0
11:20:07,725013.0,0.0,0.0
11:20:07,724974.0,0.0,0.0
11:20:07,725022.0,0.0,0.0
11:20:07,724921.0,0.0,0.0
11:20:07,724981.0,0.0,0.0
11:20:07,724973.0,0.0,0.0
11:20:07,724906.0,0.0,0.0
11:20:07,724999.0,0.0,0.0
11:20:07,724936.0,0.0,0.0
11:20:07,724994.0,0.0,0.0
11:20:07,724954.0,0.0,0.0
11:20:07,724867.0,0.0,0.0
11:20:07,724969.0,0.0,0.0
11:20:07,724858.0,0.0,0.0
11:20:07,724938.0,0.0,0.0
11:20:07,724916.0,0.0,0.0
11:20:07,724863.0,0.0,0.0
11:20:07,724939.0,0.0,0.0
11:20:07,724821.0,0.0,0.0
11:20:07,724895.0,0.0,0.0
11:20:07,724867.0,0.0,0.0
11:20:07,724816.0,0.0,0.0
11:20:07,724918.0,0.0,0.0
11:20:07,724814.0,0.0,0.0
11:20:07,724871.0,0.0,0.0
11:20:07,724838.0,0.0,0.0
11:20:07,724796.0,0.0,0.0
11:20:07,724878.0,0.0,0.0
11:20:07,724773.0,0.0,0.0
11:20:07,724813.0,0.0,0.0
11:20:07,724783.0,0.0,0.0
11:20:07,724738.0,0.0,0.0
11:20:07,724835.0,0.0,0.0
11:20:07,724707.0,0.0,0.0
11:20:07,724764.0,0.0,0.0
11:20:07,724743.0,0.0,0.0
11:20:07,724684.0,0.0,0.0
11:20:07,724729.0,0.0,0.0
11:20:07,724632.0,0.0,0.0
11:20:07,724726.0,0.0,0.0
11:20:07,724698.0,0.0,0.0
11:20:07,724655.0,0.0,0.0
11:20:07,724741.0,0.0,0.0
11:20:07,724629.0,0.0,0.0
11:20:07,724694.0,0.0,0.0
11:20:07,724677.0,0.0,0.0
11:20:07,724638.0,0.0,0.0
11:20:07,724728.0,0.0,0.0
11:20:07,724617.0,0.0,0.0
11:20:07,724698.0,0.0,0.0
11:20:07,724651.0,0.0,0.0
11:20:07,724578.0,0.0,0.0
11:20:07,724684.0,0.0,0.0
11:20:07,724571.0,0.0,0.0
11:20:07,724632.0,0.0,0.0
11:20:07,724581.0,0.0,0.0
11:20:07,724493.0,0.0,0.0
11:20:07,724508.0,0.0,0.0
11:20:07,724466.0,0.0,0.0
11:20:07,724711.0,0.0,0.0
11:20:08,724707.0,0.0,0.0
11:20:08,724589.0,0.0,0.0
11:20:08,724627.0,0.0,0.0
11:20:08,724513.0,0.0,0.0
11:20:08,724586.0,0.0,0.0
11:20:08,724542.0,0.0,0.0
11:20:08,724512.0,0.0,0.0
11:20:08,724584.0,0.0,0.0
11:20:08,724440.0,0.0,0.0
11:20:08,724560.0,0.0,0.0
11:20:08,724528.0,0.0,0.0
11:20:08,724474.0,0.0,0.0
11:20:08,724563.0,0.0,0.0
11:20:08,724486.0,0.0,0.0
11:20:08,724550.0,0.0,0.0
11:20:08,724522.0,0.0,0.0
11:20:08,724452.0,0.0,0.0
11:20:08,724534.0,0.0,0.0
11:20:08,724438.0,0.0,0.0
11:20:08,724516.0,0.0,0.0
11:20:08,724474.0,0.0,0.0
11:20:08,724431.0,0.0,0.0
11:20:08,724484.0,0.0,0.0
11:20:08,724361.0,0.0,0.0
11:20:08,724454.0,0.0,0.0
11:20:08,724406.0,0.0,0.0
11:20:08,724384.0,0.0,0.0
11:20:08,724458.0,0.0,0.0
11:20:08,724364.0,0.0,0.0
11:20:08,724439.0,0.0,0.0
11:20:08,724423.0,0.0,0.0
11:20:08,724393.0,0.0,0.0
11:20:08,724493.0,0.0,0.0
11:20:08,724383.0,0.0,0.0
11:20:08,724491.0,0.0,0.0
11:20:08,724415.0,0.0,0.0
11:20:08,724382.0,0.0,0.0
11:20:08,724443.0,0.0,0.0
11:20:08,724343.0,0.0,0.0
11:20:08,724434.0,0.0,0.0
11:20:08,724376.0,0.0,0.0
11:20:08,724384.0,0.0,0.0
11:20:08,724446.0,0.0,0.0
11:20:08,724332.0,0.0,0.0
11:20:08,724434.0,0.0,0.0
11:20:08,724394.0,0.0,0.0
11:20:08,724357.0,0.0,0.0
11:20:08,724443.0,0.0,0.0
11:20:08,724370.0,0.0,0.0
11:20:08,724423.0,0.0,0.0
11:20:08,724351.0,0.0,0.0
11:20:08,724315.0,0.0,0.0
11:20:08,724421.0,0.0,0.0
11:20:08,724291.0,0.0,0.0
11:20:08,724343.0,0.0,0.0
11:20:08,724304.0,0.0,0.0
11:20:08,724295.0,0.0,0.0
11:20:08,724373.0,0.0,0.0
11:20:08,724261.0,0.0,0.0
11:20:08,724324.0,0.0,0.0
11:20:08,724293.0,0.0,0.0
11:20:08,724296.0,0.0,0.0
11:20:08,724363.0,0.0,0.0
11:20:08,724264.0,0.0,0.0
11:20:08,724361.0,0.0,0.0
11:20:08,724316.0,0.0,0.0
11:20:08,724283.0,0.0,0.0
11:20:08,724333.0,0.0,0.0
11:20:08,724218.0,0.0,0.0
11:20:08,724314.0,0.0,0.0
11:20:08,724265.0,0.0,0.0
11:20:08,724274.0,0.0,0.0
11:20:08,724348.0,0.0,0.0
11:20:08,724237.0,0.0,0.0
11:20:08,724321.0,0.0,0.0
11:20:08,724288.0,0.0,0.0
11:20:08,724294.0,0.0,0.0
11:20:08,724325.0,0.0,0.0
11:20:08,724217.0,0.0,0.0
11:20:08,724314.0,0.0,0.0
11:20:08,724251.0,0.0,0.0
11:20:08,724269.0,0.0,0.0
11:20:08,724351.0,0.0,0.0
11:20:08,724219.0,0.0,0.0
11:20:08,724287.0,0.0,0.0
11:20:08,724211.0,0.0,0.0
11:20:08,724203.0,0.0,0.0
11:20:08,724284.0,0.0,0.0
11:20:08,724163.0,0.0,0.0
11:20:08,724262.0,0.0,0.0
11:20:08,724208.0,0.0,0.0
11:20:08,724186.0,0.0,0.0
11:20:08,724286.0,0.0,0.0
11:20:08,724174.0,0.0,0.0
11:20:08,724239.0,0.0,0.0
11:20:08,724180.0,0.0,0.0
11:20:08,724178.0,0.0,0.0
11:20:08,724231.0,0.0,0.0
11:20:08,724152.0,0.0,0.0
11:20:08,724238.0,0.0,0.0
11:20:08,724176.0,0.0,0.0
11:20:08,724157.0,0.0,0.0
11:20:08,724214.0,0.0,0.0
11:20:08,724119.0,0.0,0.0
11:20:08,724229.0,0.0,0.0
11:20:08,724179.0,0.0,0.0
11:20:08,724174.0,0.0,0.0
11:20:08,724223.0,0.0,0.0
11:20:08,724140.0,0.0,0.0
11:20:08,724245.0,0.0,0.0
11:20:08,724158.0,0.0,0.0
11:20:08,724107.0,0.0,0.0
11:20:08,724143.0,0.0,0.0
11:20:08,724008.0,0.0,0.0
11:20:08,724194.0,0.0,0.0
11:20:08,724265.0,0.0,0.0
11:20:08,724288.0,0.0,0.0
11:20:08,724258.0,0.0,0.0
11:20:08,724120.0,0.0,0.0
11:20:08,724207.0,0.0,0.0
11:20:08,724165.0,0.0,0.0
11:20:08,724149.0,0.0,0.0
11:20:08,724192.0,0.0,0.0
11:20:08,724086.0,0.0,0.0
11:20:08,724189.0,0.0,0.0
11:20:09,724143.0,0.0,0.0
11:20:09,724130.0,0.0,0.0
11:20:09,724196.0,0.0,0.0
11:20:09,724113.0,0.0,0.0
11:20:09,724201.0,0.0,0.0
11:20:09,724138.0,0.0,0.0
11:20:09,724109.0,0.0,0.0
11:20:09,724176.0,0.0,0.0
11:20:09,724084.0,0.0,0.0
11:20:09,724201.0,0.0,0.0
11:20:09,724129.0,0.0,0.0
11:20:09,724105.0,0.0,0.0
11:20:09,724153.0,0.0,0.0
11:20:09,724073.0,0.0,0.0
11:20:09,724159.0,0.0,0.0
11:20:09,724108.0,0.0,0.0
11:20:09,724074.0,0.0,0.0
11:20:09,724138.0,0.0,0.0
11:20:09,724088.0,0.0,0.0
11:20:09,724156.0,0.0,0.0
11:20:09,724111.0,0.0,0.0
11:20:09,724126.0,0.0,0.0
11:20:09,724173.0,0.0,0.0
11:20:09,724089.0,0.0,0.0
11:20:09,724212.0,0.0,0.0
11:20:09,724123.0,0.0,0.0
11:20:09,724113.0,0.0,0.0
11:20:09,724164.0,0.0,0.0
11:20:09,724064.0,0.0,0.0
11:20:09,724141.0,0.0,0.0
11:20:09,724078.0,0.0,0.0
11:20:09,724099.0,0.0,0.0
11:20:09,724140.0,0.0,0.0
11:20:09,724044.0,0.0,0.0
11:20:09,724133.0,0.0,0.0
11:20:09,724078.0,0.0,0.0
11:20:09,724103.0,0.0,0.0
11:20:09,724194.0,0.0,0.0
11:20:09,724083.0,0.0,0.0
11:20:09,724140.0,0.0,0.0
11:20:09,724089.0,0.0,0.0
11:20:09,724134.0,0.0,0.0
11:20:09,724189.0,0.0,0.0
11:20:09,724051.0,0.0,0.0
11:20:09,724134.0,0.0,0.0
11:20:09,724064.0,0.0,0.0
11:20:09,724086.0,0.0,0.0
11:20:09,724143.0,0.0,0.0
11:20:09,724053.0,0.0,0.0
11:20:09,724144.0,0.0,0.0
11:20:09,724073.0,0.0,0.0
11:20:09,724108.0,0.0,0.0
11:20:09,724115.0,0.0,0.0
11:20:09,724049.0,0.0,0.0
11:20:09,724164.0,0.0,0.0
11:20:09,724079.0,0.0,0.0
11:20:09,724084.0,0.0,0.0
11:20:09,724140.0,0.0,0.0
11:20:09,724064.0,0.0,0.0
11:20:09,724134.0,0.0,0.0
11:20:09,724074.0,0.0,0.0
11:20:09,724099.0,0.0,0.0
11:20:09,724158.0,0.0,0.0
11:20:09,724060.0,0.0,0.0
11:20:09,724146.0,0.0,0.0
11:20:09,724081.0,0.0,0.0
11:20:09,724106.0,0.0,0.0
11:20:09,724166.0,0.0,0.0
11:20:09,724082.0,0.0,0.0
11:20:09,724191.0,0.0,0.0
11:20:09,724109.0,0.0,0.0
11:20:09,724134.0,0.0,0.0
11:20:09,724174.0,0.0,0.0
11:20:09,724085.0,0.0,0.0
11:20:09,724199.0,0.0,0.0
11:20:09,724124.0,0.0,0.0
11:20:09,724184.0,0.0,0.0
11:20:09,724219.0,0.0,0.0
11:20:09,724133.0,0.0,0.0
11:20:09,724254.0,0.0,0.0
11:20:09,724186.0,0.0,0.0
11:20:09,724208.0,0.0,0.0
11:20:09,724268.0,0.0,0.0
11:20:09,724186.0,0.0,0.0
11:20:09,724270.0,0.0,0.0
11:20:09,724211.0,0.0,0.0
11:20:09,724272.0,0.0,0.0
11:20:09,724324.0,0.0,0.0
11:20:09,724263.0,0.0,0.0
11:20:09,724379.0,0.0,0.0
11:20:09,724291.0,0.0,0.0
11:20:09,724334.0,0.0,0.0
11:20:09,724356.0,0.0,0.0
11:20:09,724278.0,0.0,0.0
11:20:09,724388.0,0.0,0.0
11:20:09,724324.0,0.0,0.0
11:20:09,724359.0,0.0,0.0
11:20:09,724406.0,0.0,0.0
11:20:09,724340.0,0.0,0.0
11:20:09,724455.0,0.0,0.0
11:20:09,724366.0,0.0,0.0
11:20:09,724397.0,0.0,0.0
11:20:09,724453.0,0.0,0.0
11:20:09,724392.0,0.0,0.0
11:20:09,724453.0,0.0,0.0
11:20:09,724329.0,0.0,0.0
11:20:09,724321.0,0.0,0.0
11:20:09,724408.0,0.0,0.0
11:20:09,724476.0,0.0,0.0
11:20:09,724649.0,0.0,0.0
11:20:09,724534.0,0.0,0.0
11:20:09,724522.0,0.0,0.0
11:20:09,724549.0,0.0,0.0
11:20:09,724473.0,0.0,0.0
11:20:09,724584.0,0.0,0.0
11:20:09,724506.0,0.0,0.0
11:20:09,724558.0,0.0,0.0
11:20:09,724616.0,0.0,0.0
11:20:09,724578.0,0.0,0.0
11:20:09,724653.0,0.0,0.0
11:20:09,724554.0,0.0,0.0
11:20:09,724641.0,0.0,0.0
11:20:09,724678.0,0.0,0.0
11:20:09,724613.0,0.0,0.0
11:20:09,724763.0,0.0,0.0
11:20:10,724653.0,0.0,0.0
11:20:10,724728.0,0.0,0.0
11:20:10,724778.0,0.0,0.0
11:20:10,724719.0,0.0,0.0
11:20:10,724816.0,0.0,0.0
11:20:10,724707.0,0.0,0.0
11:20:10,724808.0,0.0,0.0
11:20:10,724801.0,0.0,0.0
11:20:10,724737.0,0.0,0.0
11:20:10,724849.0,0.0,0.0
11:20:10,724739.0,0.0,0.0
11:20:10,724809.0,0.0,0.0
11:20:10,724864.0,0.0,0.0
11:20:10,724788.0,0.0,0.0
11:20:10,724895.0,0.0,0.0
11:20:10,724815.0,0.0,0.0
11:20:10,724889.0,0.0,0.0
11:20:10,724914.0,0.0,0.0
11:20:10,724856.0,0.0,0.0
11:20:10,725005.0,0.0,0.0
11:20:10,724918.0,0.0,0.0
11:20:10,724947.0,0.0,0.0
11:20:10,724946.0,0.0,0.0
11:20:10,724879.0,0.0,0.0
11:20:10,724986.0,0.0,0.0
11:20:10,724924.0,0.0,0.0
11:20:10,724954.0,0.0,0.0
11:20:10,724985.0,0.0,0.0
11:20:10,724957.0,0.0,0.0
11:20:10,725088.0,0.0,0.0
11:20:10,725031.0,0.0,0.0
11:20:10,725099.0,0.0,0.0
11:20:10,725113.0,0.0,0.0
11:20:10,725074.0,0.0,0.0
11:20:10,725213.0,0.0,0.0
11:20:10,725133.0,0.0,0.0
11:20:10,725181.0,0.0,0.0
11:20:10,725184.0,0.0,0.0
11:20:10,725122.0,0.0,0.0
11:20:10,725229.0,0.0,0.0
11:20:10,725167.0,0.0,0.0
11:20:10,725245.0,0.0,0.0
11:20:10,725249.0,0.0,0.0
11:20:10,725201.0,0.0,0.0
11:20:10,725299.0,0.0,0.0
11:20:10,725218.0,0.0,0.0
11:20:10,725288.0,0.0,0.0
11:20:10,725325.0,0.0,0.0
11:20:10,725272.0,0.0,0.0
11:20:10,725369.0,0.0,0.0
11:20:10,725295.0,0.0,0.0
11:20:10,725374.0,0.0,0.0
11:20:10,725399.0,0.0,0.0
11:20:10,725357.0,0.0,0.0
11:20:10,725468.0,0.0,0.0
11:20:10,725413.0,0.0,0.0
11:20:10,725447.0,0.0,0.0
11:20:10,725444.0,0.0,0.0
11:20:10,725396.0,0.0,0.0
11:20:10,725553.0,0.0,0.0
11:20:10,725463.0,0.0,0.0
11:20:10,725541.0,0.0,0.0
11:20:10,725568.0,0.0,0.0
11:20:10,725524.0,0.0,0.0
11:20:10,725648.0,0.0,0.0
11:20:10,725539.0,0.0,0.0
11:20:10,725599.0,0.0,0.0
11:20:10,725621.0,0.0,0.0
11:20:10,725584.0,0.0,0.0
11:20:10,725714.0,0.0,0.0
11:20:10,725606.0,0.0,0.0
11:20:10,725673.0,0.0,0.0
11:20:10,725686.0,0.0,0.0
11:20:10,725642.0,0.0,0.0
11:20:10,725739.0,0.0,0.0
11:20:10,725677.0,0.0,0.0
11:20:10,725774.0,0.0,0.0
11:20:10,725754.0,0.0,0.0
11:20:10,725726.0,0.0,0.0
11:20:10,725853.0,0.0,0.0
11:20:10,725769.0,0.0,0.0
11:20:10,725825.0,0.0,0.0
11:20:10,725839.0,0.0,0.0
11:20:10,725794.0,0.0,0.0
11:20:10,725906.0,0.0,0.0
11:20:10,725836.0,0.0,0.0
11:20:10,725938.0,0.0,0.0
11:20:10,725929.0,0.0,0.0
11:20:10,725876.0,0.0,0.0
11:20:10,725973.0,0.0,0.0
11:20:10,725858.0,0.0,0.0
11:20:10,725962.0,0.0,0.0
11:20:10,725967.0,0.0,0.0
11:20:10,725923.0,0.0,0.0
11:20:10,726056.0,0.0,0.0
11:20:10,725953.0,0.0,0.0
11:20:10,726026.0,0.0,0.0
11:20:10,726009.0,0.0,0.0
11:20:10,725933.0,0.0,0.0
11:20:10,725996.0,0.0,0.0
11:20:10,725850.0,0.0,0.0
11:20:10,726048.0,0.0,0.0
11:20:10,726189.0,0.0,0.0
11:20:10,726144.0,0.0,0.0
11:20:10,726173.0,0.0,0.0
11:20:10,726028.0,0.0,0.0
11:20:10,726082.0,0.0,0.0
11:20:10,726081.0,0.0,0.0
11:20:10,726051.0,0.0,0.0
11:20:10,726169.0,0.0,0.0
11:20:10,726094.0,0.0,0.0
11:20:10,726163.0,0.0,0.0
11:20:10,726138.0,0.0,0.0
11:20:10,726072.0,0.0,0.0
11:20:10,726183.0,0.0,0.0
11:20:10,726065.0,0.0,0.0
11:20:10,726139.0,0.0,0.0
11:20:10,726128.0,0.0,0.0
11:20:10,726101.0,0.0,0.0
11:20:10,726229.0,0.0,0.0
11:20:10,726094.0,0.0,0.0
11:20:10,726171.0,0.0,0.0
11:20:10,726159.0,0.0,0.0
11:20:10,726131.0,0.0,0.0
11:20:10,726198.0,0.0,0.0
11:20:11,726089.0,0.0,0.0
11:20:11,726188.0,0.0,0.0
11:20:11,726154.0,0.0,0.0
11:20:11,726113.0,0.0,0.0
11:20:11,726208.0,0.0,0.0
11:20:11,726087.0,0.0,0.0
11:20:11,726171.0,0.0,0.0
11:20:11,726153.0,0.0,0.0
11:20:11,726133.0,0.0,0.0
11:20:11,726189.0,0.0,0.0
11:20:11,726106.0,0.0,0.0
11:20:11,726195.0,0.0,0.0
11:20:11,726181.0,0.0,0.0
11:20:11,726157.0,0.0,0.0
11:20:11,726199.0,0.0,0.0
11:20:11,726059.0,0.0,0.0
11:20:11,726168.0,0.0,0.0
11:20:11,726146.0,0.0,0.0
11:20:11,726105.0,0.0,0.0
11:20:11,726193.0,0.0,0.0
11:20:11,726096.0,0.0,0.0
11:20:11,726178.0,0.0,0.0
11:20:11,726168.0,0.0,0.0
11:20:11,726124.0,0.0,0.0
11:20:11,726228.0,0.0,0.0
11:20:11,726121.0,0.0,0.0
11:20:11,726184.0,0.0,0.0
11:20:11,726158.0,0.0,0.0
11:20:11,726100.0,0.0,0.0
11:20:11,726196.0,0.0,0.0
11:20:11,726094.0,0.0,0.0
11:20:11,726179.0,0.0,0.0
11:20:11,726161.0,0.0,0.0
11:20:11,726137.0,0.0,0.0
11:20:11,726218.0,0.0,0.0
11:20:11,726119.0,0.0,0.0
11:20:11,726209.0,0.0,0.0
11:20:11,726174.0,0.0,0.0
11:20:11,726131.0,0.0,0.0
11:20:11,726229.0,0.0,0.0
11:20:11,726144.0,0.0,0.0
11:20:11,726233.0,0.0,0.0
11:20:11,726203.0,0.0,0.0
11:20:11,726171.0,0.0,0.0
11:20:11,726230.0,0.0,0.0
11:20:11,726156.0,0.0,0.0
11:20:11,726248.0,0.0,0.0
11:20:11,726233.0,0.0,0.0
11:20:11,726198.0,0.0,0.0
11:20:11,726279.0,0.0,0.0
11:20:11,726196.0,0.0,0.0
11:20:11,726288.0,0.0,0.0
11:20:11,726274.0,0.0,0.0
11:20:11,726232.0,0.0,0.0
11:20:11,726296.0,0.0,0.0
11:20:11,726215.0,0.0,0.0
11:20:11,726304.0,0.0,0.0
11:20:11,726285.0,0.0,0.0
11:20:11,726252.0,0.0,0.0
11:20:11,726308.0,0.0,0.0
11:20:11,726223.0,0.0,0.0
11:20:11,726297.0,0.0,0.0
11:20:11,726259.0,0.0,0.0
11:20:11,726271.0,0.0,0.0
11:20:11,726341.0,0.0,0.0
11:20:11,726215.0,0.0,0.0
11:20:11,726317.0,0.0,0.0
11:20:11,726312.0,0.0,0.0
11:20:11,726286.0,0.0,0.0
11:20:11,726374.0,0.0,0.0
11:20:11,726244.0,0.0,0.0
11:20:11,726308.0,0.0,0.0
11:20:11,726278.0,0.0,0.0
11:20:11,726256.0,0.0,0.0
11:20:11,726345.0,0.0,0.0
11:20:11,726244.0,0.0,0.0
11:20:11,726309.0,0.0,0.0
11:20:11,726289.0,0.0,0.0
11:20:11,726245.0,0.0,0.0
11:20:11,726345.0,0.0,0.0
11:20:11,726235.0,0.0,0.0
11:20:11,726312.0,0.0,0.0
11:20:11,726276.0,0.0,0.0
11:20:11,726243.0,0.0,0.0
11:20:11,726311.0,0.0,0.0
11:20:11,726236.0,0.0,0.0
11:20:11,726303.0,0.0,0.0
11:20:11,726249.0,0.0,0.0
11:20:11,726235.0,0.0,0.0
11:20:11,726302.0,0.0,0.0
11:20:11,726164.0,0.0,0.0
11:20:11,726204.0,0.0,0.0
11:20:11,726154.0,0.0,0.0
11:20:11,726231.0,0.0,0.0
11:20:11,726451.0,0.0,0.0
11:20:11,726349.0,0.0,0.0
11:20:11,726370.0,0.0,0.0
11:20:11,726287.0,0.0,0.0
11:20:11,726228.0,0.0,0.0
11:20:11,726258.0,0.0,0.0
11:20:11,726188.0,0.0,0.0
11:20:11,726294.0,0.0,0.0
11:20:11,726243.0,0.0,0.0
11:20:11,726199.0,0.0,0.0
11:20:11,726269.0,0.0,0.0
11:20:11,726160.0,0.0,0.0
11:20:11,726268.0,0.0,0.0
11:20:11,726213.0,0.0,0.0
11:20:11,726214.0,0.0,0.0
11:20:11,726264.0,0.0,0.0
11:20:11,726179.0,0.0,0.0
11:20:11,726269.0,0.0,0.0
11:20:11,726178.0,0.0,0.0
11:20:11,726188.0,0.0,0.0
11:20:11,726249.0,0.0,0.0
11:20:11,726147.0,0.0,0.0
11:20:11,726231.0,0.0,0.0
11:20:11,726146.0,0.0,0.0
11:20:11,726121.0,0.0,0.0
11:20:11,726194.0,0.0,0.0
11:20:11,726092.0,0.0,0.0
11:20:11,726189.0,0.0,0.0
11:20:11,726107.0,0.0,0.0
11:20:11,726085.0,0.0,0.0
11:20:11,726164.0,0.0,0.0
11:20:12,726074.0,0.0,0.0
11:20:12,726178.0,0.0,0.0
11:20:12,726121.0,0.0,0.0
11:20:12,726086.0,0.0,0.0
11:20:12,726158.0,0.0,0.0
11:20:12,726052.0,0.0,0.0
11:20:12,726132.0,0.0,0.0
11:20:12,726053.0,0.0,0.0
11:20:12,726044.0,0.0,0.0
11:20:12,726126.0,0.0,0.0
11:20:12,726016.0,0.0,0.0
11:20:12,726116.0,0.0,0.0
11:20:12,726049.0,0.0,0.0
11:20:12,726029.0,0.0,0.0
11:20:12,726096.0,0.0,0.0
11:20:12,725976.0,0.0,0.0
11:20:12,726086.0,0.0,0.0
11:20:12,726012.0,0.0,0.0
11:20:12,726010.0,0.0,0.0
11:20:12,726058.0,0.0,0.0
11:20:12,725942.0,0.0,0.0
11:20:12,726043.0,0.0,0.0
11:20:12,725961.0,0.0,0.0
11:20:12,725920.0,0.0,0.0
11:20:12,725984.0,0.0,0.0
11:20:12,725867.0,0.0,0.0
11:20:12,725975.0,0.0,0.0
11:20:12,725900.0,0.0,0.0
11:20:12,725896.0,0.0,0.0
11:20:12,725935.0,0.0,0.0
11:20:12,725866.0,0.0,0.0
11:20:12,725949.0,0.0,0.0
11:20:12,725849.0,0.0,0.0
11:20:12,725866.0,0.0,0.0
11:20:12,725937.0,0.0,0.0
11:20:12,725814.0,0.0,0.0
11:20:12,725894.0,0.0,0.0
11:20:12,725838.0,0.0,0.0
11:20:12,725794.0,0.0,0.0
11:20:12,725851.0,0.0,0.0
11:20:12,725776.0,0.0,0.0
11:20:12,725859.0,0.0,0.0
11:20:12,725749.0,0.0,0.0
11:20:12,725743.0,0.0,0.0
11:20:12,725814.0,0.0,0.0
11:20:12,725717.0,0.0,0.0
11:20:12,725794.0,0.0,0.0
11:20:12,725738.0,0.0,0.0
11:20:12,725758.0,0.0,0.0
11:20:12,725803.0,0.0,0.0
11:20:12,725682.0,0.0,0.0
11:20:12,725765.0,0.0,0.0
11:20:12,725699.0,0.0,0.0
11:20:12,725704.0,0.0,0.0
11:20:12,725713.0,0.0,0.0
11:20:12,725612.0,0.0,0.0
11:20:12,725707.0,0.0,0.0
11:20:12,725623.0,0.0,0.0
11:20:12,725588.0,0.0,0.0
11:20:12,725612.0,0.0,0.0
11:20:12,725516.0,0.0,0.0
11:20:12,725624.0,0.0,0.0
11:20:12,725546.0,0.0,0.0
11:20:12,725544.0,0.0,0.0
11:20:12,725584.0,0.0,0.0
11:20:12,725488.0,0.0,0.0
11:20:12,725579.0,0.0,0.0
11:20:12,725512.0,0.0,0.0
11:20:12,725506.0,0.0,0.0
11:20:12,725533.0,0.0,0.0
11:20:12,725414.0,0.0,0.0
11:20:12,725527.0,0.0,0.0
11:20:12,725454.0,0.0,0.0
11:20:12,725496.0,0.0,0.0
11:20:12,725514.0,0.0,0.0
11:20:12,725389.0,0.0,0.0
11:20:12,725486.0,0.0,0.0
11:20:12,725404.0,0.0,0.0
11:20:12,725399.0,0.0,0.0
11:20:12,725446.0,0.0,0.0
11:20:12,725353.0,0.0,0.0
11:20:12,725418.0,0.0,0.0
11:20:12,725288.0,0.0,0.0
11:20:12,725274.0,0.0,0.0
11:20:12,725261.0,0.0,0.0
11:20:12,725205.0,0.0,0.0
11:20:12,725484.0,0.0,0.0
11:20:12,725446.0,0.0,0.0
11:20:12,725381.0,0.0,0.0
11:20:12,725358.0,0.0,0.0
11:20:12,725239.0,0.0,0.0
11:20:12,725291.0,0.0,0.0
11:20:12,725220.0,0.0,0.0
11:20:12,725206.0,0.0,0.0
11:20:12,725230.0,0.0,0.0
11:20:12,725140.0,0.0,0.0
11:20:12,725211.0,0.0,0.0
11:20:12,725081.0,0.0,0.0
11:20:12,725112.0,0.0,0.0
11:20:12,725153.0,0.0,0.0
11:20:12,725081.0,0.0,0.0
11:20:12,725154.0,0.0,0.0
11:20:12,725069.0,0.0,0.0
11:20:12,725082.0,0.0,0.0
11:20:12,725107.0,0.0,0.0
11:20:12,725039.0,0.0,0.0
11:20:12,725097.0,0.0,0.0
11:20:12,725029.0,0.0,0.0
11:20:12,725046.0,0.0,0.0
11:20:12,725063.0,0.0,0.0
11:20:12,724957.0,0.0,0.0
11:20:12,725064.0,0.0,0.0
11:20:12,724977.0,0.0,0.0
11:20:12,724989.0,0.0,0.0
11:20:12,725024.0,0.0,0.0
11:20:12,724941.0,0.0,0.0
11:20:12,725011.0,0.0,0.0
11:20:12,724936.0,0.0,0.0
11:20:12,724992.0,0.0,0.0
11:20:12,725014.0,0.0,0.0
11:20:12,724924.0,0.0,0.0
11:20:12,725034.0,0.0,0.0
11:20:12,724908.0,0.0,0.0
11:20:12,724924.0,0.0,0.0
11:20:12,724968.0,0.0,0.0
11:20:13,724851.0,0.0,0.0
11:20:13,724955.0,0.0,0.0
11:20:13,724871.0,0.0,0.0
11:20:13,724899.0,0.0,0.0
11:20:13,724883.0,0.0,0.0
11:20:13,724826.0,0.0,0.0
11:20:13,724934.0,0.0,0.0
11:20:13,724843.0,0.0,0.0
11:20:13,724881.0,0.0,0.0
11:20:13,724886.0,0.0,0.0
11:20:13,724765.0,0.0,0.0
11:20:13,724869.0,0.0,0.0
11:20:13,724772.0,0.0,0.0
11:20:13,724783.0,0.0,0.0
11:20:13,724831.0,0.0,0.0
11:20:13,724731.0,0.0,0.0
11:20:13,724803.0,0.0,0.0
11:20:13,724698.0,0.0,0.0
11:20:13,724731.0,0.0,0.0
11:20:13,724766.0,0.0,0.0
11:20:13,724687.0,0.0,0.0
11:20:13,724786.0,0.0,0.0
11:20:13,724680.0,0.0,0.0
11:20:13,724716.0,0.0,0.0
11:20:13,724730.0,0.0,0.0
11:20:13,724655.0,0.0,0.0
11:20:13,724734.0,0.0,0.0
11:20:13,724615.0,0.0,0.0
11:20:13,724653.0,0.0,0.0
11:20:13,724709.0,0.0,0.0
11:20:13,724598.0,0.0,0.0
11:20:13,724692.0,0.0,0.0
11:20:13,724617.0,0.0,0.0
11:20:13,724635.0,0.0,0.0
11:20:13,724621.0,0.0,0.0
11:20:13,724553.0,0.0,0.0
11:20:13,724669.0,0.0,0.0
11:20:13,724557.0,0.0,0.0
11:20:13,724577.0,0.0,0.0
11:20:13,724608.0,0.0,0.0
11:20:13,724508.0,0.0,0.0
11:20:13,724593.0,0.0,0.0
11:20:13,724493.0,0.0,0.0
11:20:13,724539.0,0.0,0.0
11:20:13,724548.0,0.0,0.0
11:20:13,724455.0,0.0,0.0
11:20:13,724584.0,0.0,0.0
11:20:13,724466.0,0.0,0.0
11:20:13,724510.0,0.0,0.0
11:20:13,724503.0,0.0,0.0
11:20:13,724409.0,0.0,0.0
11:20:13,724506.0,0.0,0.0
11:20:13,724415.0,0.0,0.0
11:20:13,724438.0,0.0,0.0
11:20:13,724473.0,0.0,0.0
11:20:13,724389.0,0.0,0.0
11:20:13,724483.0,0.0,0.0
11:20:13,724386.0,0.0,0.0
11:20:13,724427.0,0.0,0.0
11:20:13,724406.0,0.0,0.0
11:20:13,724357.0,0.0,0.0
11:20:13,724443.0,0.0,0.0
11:20:13,724328.0,0.0,0.0
11:20:13,724401.0,0.0,0.0
11:20:13,724408.0,0.0,0.0
11:20:13,724323.0,0.0,0.0
11:20:13,724438.0,0.0,0.0
11:20:13,724348.0,0.0,0.0
11:20:13,724406.0,0.0,0.0
11:20:13,724419.0,0.0,0.0
11:20:13,724341.0,0.0,0.0
11:20:13,724445.0,0.0,0.0
11:20:13,724358.0,0.0,0.0
11:20:13,724409.0,0.0,0.0
11:20:13,724383.0,0.0,0.0
11:20:13,724319.0,0.0,0.0
11:20:13,724428.0,0.0,0.0
11:20:13,724288.0,0.0,0.0
11:20:13,724263.0,0.0,0.0
11:20:13,724254.0,0.0,0.0
11:20:13,724295.0,0.0,0.0
11:20:13,724546.0,0.0,0.0
11:20:13,724438.0,0.0,0.0
11:20:13,724402.0,0.0,0.0
11:20:13,724367.0,0.0,0.0
11:20:13,724299.0,0.0,0.0
11:20:13,724379.0,0.0,0.0
11:20:13,724279.0,0.0,0.0
11:20:13,724361.0,0.0,0.0
11:20:13,724355.0,0.0,0.0
11:20:13,724284.0,0.0,0.0
11:20:13,724386.0,0.0,0.0
11:20:13,724288.0,0.0,0.0
11:20:13,724326.0,0.0,0.0
11:20:13,724350.0,0.0,0.0
11:20:13,724281.0,0.0,0.0
11:20:13,724386.0,0.0,0.0
11:20:13,724266.0,0.0,0.0
11:20:13,724294.0,0.0,0.0
11:20:13,724326.0,0.0,0.0
11:20:13,724280.0,0.0,0.0
11:20:13,724349.0,0.0,0.0
11:20:13,724246.0,0.0,0.0
11:20:13,724293.0,0.0,0.0
11:20:13,724284.0,0.0,0.0
11:20:13,724184.0,0.0,0.0
11:20:13,724293.0,0.0,0.0
11:20:13,724211.0,0.0,0.0
11:20:13,724278.0,0.0,0.0
11:20:13,724273.0,0.0,0.0
11:20:13,724189.0,0.0,0.0
11:20:13,724293.0,0.0,0.0
11:20:13,724220.0,0.0,0.0
11:20:13,724282.0,0.0,0.0
11:20:13,724266.0,0.0,0.0
11:20:13,724191.0,0.0,0.0
11:20:13,724306.0,0.0,0.0
11:20:13,724215.0,0.0,0.0
11:20:13,724275.0,0.0,0.0
11:20:13,724234.0,0.0,0.0
11:20:13,724179.0,0.0,0.0
11:20:13,724266.0,0.0,0.0
11:20:13,724160.0,0.0,0.0
11:20:13,724205.0,0.0,0.0
11:20:13,724238.0,0.0,0.0
11:20:14,724187.0,0.0,0.0
11:20:14,724281.0,0.0,0.0
11:20:14,724189.0,0.0,0.0
11:20:14,724242.0,0.0,0.0
11:20:14,724241.0,0.0,0.0
11:20:14,724189.0,0.0,0.0
11:20:14,724284.0,0.0,0.0
11:20:14,724171.0,0.0,0.0
11:20:14,724211.0,0.0,0.0
11:20:14,724206.0,0.0,0.0
11:20:14,724159.0,0.0,0.0
11:20:14,724207.0,0.0,0.0
11:20:14,724088.0,0.0,0.0
11:20:14,724173.0,0.0,0.0
11:20:14,724153.0,0.0,0.0
11:20:14,724098.0,0.0,0.0
11:20:14,724213.0,0.0,0.0
11:20:14,724108.0,0.0,0.0
11:20:14,724184.0,0.0,0.0
11:20:14,724142.0,0.0,0.0
11:20:14,724103.0,0.0,0.0
11:20:14,724170.0,0.0,0.0
11:20:14,724083.0,0.0,0.0
11:20:14,724145.0,0.0,0.0
11:20:14,724156.0,0.0,0.0
11:20:14,724099.0,0.0,0.0
11:20:14,724169.0,0.0,0.0
11:20:14,724056.0,0.0,0.0
11:20:14,724128.0,0.0,0.0
11:20:14,724116.0,0.0,0.0
11:20:14,724056.0,0.0,0.0
11:20:14,724173.0,0.0,0.0
11:20:14,724039.0,0.0,0.0
11:20:14,724116.0,0.0,0.0
11:20:14,724116.0,0.0,0.0
11:20:14,724027.0,0.0,0.0
11:20:14,724119.0,0.0,0.0
11:20:14,724016.0,0.0,0.0
11:20:14,724077.0,0.0,0.0
11:20:14,724076.0,0.0,0.0
11:20:14,724036.0,0.0,0.0
11:20:14,724147.0,0.0,0.0
11:20:14,724059.0,0.0,0.0
11:20:14,724109.0,0.0,0.0
11:20:14,724083.0,0.0,0.0
11:20:14,724022.0,0.0,0.0
11:20:14,724112.0,0.0,0.0
11:20:14,724004.0,0.0,0.0
11:20:14,724074.0,0.0,0.0
11:20:14,724076.0,0.0,0.0
11:20:14,724046.0,0.0,0.0
11:20:14,724118.0,0.0,0.0
11:20:14,723993.0,0.0,0.0
11:20:14,724089.0,0.0,0.0
11:20:14,724064.0,0.0,0.0
11:20:14,724028.0,0.0,0.0
11:20:14,724110.0,0.0,0.0
11:20:14,724003.0,0.0,0.0
11:20:14,724109.0,0.0,0.0
11:20:14,724053.0,0.0,0.0
11:20:14,724008.0,0.0,0.0
11:20:14,724081.0,0.0,0.0
11:20:14,724006.0,0.0,0.0
11:20:14,724105.0,0.0,0.0
11:20:14,724059.0,0.0,0.0
11:20:14,724004.0,0.0,0.0
11:20:14,724112.0,0.0,0.0
11:20:14,724023.0,0.0,0.0
11:20:14,724083.0,0.0,0.0
11:20:14,724061.0,0.0,0.0
