TimeStramp,ECG,SpO2,Respiration
11:28:15,691406.0,0.0,0.0
11:28:15,691383.0,0.0,0.0
11:28:15,691386.0,0.0,0.0
11:28:15,691383.0,0.0,0.0
11:28:15,691397.0,0.0,0.0
11:28:15,691401.0,0.0,0.0
11:28:15,691380.0,0.0,0.0
11:28:15,691398.0,0.0,0.0
11:28:15,691384.0,0.0,0.0
11:28:15,691408.0,0.0,0.0
11:28:15,691394.0,0.0,0.0
11:28:15,691366.0,0.0,0.0
11:28:15,691417.0,0.0,0.0
11:28:15,691399.0,0.0,0.0
11:28:15,691396.0,0.0,0.0
11:28:15,691400.0,0.0,0.0
11:28:15,691366.0,0.0,0.0
11:28:15,691389.0,0.0,0.0
11:28:15,691381.0,0.0,0.0
11:28:15,691372.0,0.0,0.0
11:28:15,691376.0,0.0,0.0
11:28:15,691361.0,0.0,0.0
11:28:15,691380.0,0.0,0.0
11:28:15,691380.0,0.0,0.0
11:28:15,691389.0,0.0,0.0
11:28:15,691393.0,0.0,0.0
11:28:15,691364.0,0.0,0.0
11:28:15,691384.0,0.0,0.0
11:28:15,691370.0,0.0,0.0
11:28:15,691391.0,0.0,0.0
11:28:15,691386.0,0.0,0.0
11:28:15,691356.0,0.0,0.0
11:28:15,691363.0,0.0,0.0
11:28:15,691335.0,0.0,0.0
11:28:15,691339.0,0.0,0.0
11:28:15,691279.0,0.0,0.0
11:28:15,691264.0,0.0,0.0
11:28:15,691438.0,0.0,0.0
11:28:15,691533.0,0.0,0.0
11:28:15,691523.0,0.0,0.0
11:28:15,691481.0,0.0,0.0
11:28:15,691416.0,0.0,0.0
11:28:15,691403.0,0.0,0.0
11:28:15,691364.0,0.0,0.0
11:28:15,691406.0,0.0,0.0
11:28:15,691426.0,0.0,0.0
11:28:15,691346.0,0.0,0.0
11:28:15,691356.0,0.0,0.0
11:28:15,691334.0,0.0,0.0
11:28:15,691388.0,0.0,0.0
11:28:15,691403.0,0.0,0.0
11:28:15,691333.0,0.0,0.0
11:28:15,691353.0,0.0,0.0
11:28:15,691351.0,0.0,0.0
11:28:15,691352.0,0.0,0.0
11:28:15,691328.0,0.0,0.0
11:28:15,691307.0,0.0,0.0
11:28:15,691321.0,0.0,0.0
11:28:15,691296.0,0.0,0.0
11:28:15,691291.0,0.0,0.0
11:28:15,691297.0,0.0,0.0
11:28:15,691286.0,0.0,0.0
11:28:15,691294.0,0.0,0.0
11:28:15,691302.0,0.0,0.0
11:28:15,691307.0,0.0,0.0
11:28:15,691314.0,0.0,0.0
11:28:15,691278.0,0.0,0.0
11:28:15,691296.0,0.0,0.0
11:28:15,691294.0,0.0,0.0
11:28:15,691311.0,0.0,0.0
11:28:15,691353.0,0.0,0.0
11:28:15,691343.0,0.0,0.0
11:28:15,691363.0,0.0,0.0
11:28:15,691354.0,0.0,0.0
11:28:15,691381.0,0.0,0.0
11:28:15,691365.0,0.0,0.0
11:28:15,691356.0,0.0,0.0
11:28:15,691378.0,0.0,0.0
11:28:15,691377.0,0.0,0.0
11:28:15,691358.0,0.0,0.0
11:28:15,691390.0,0.0,0.0
11:28:15,691368.0,0.0,0.0
11:28:15,691391.0,0.0,0.0
11:28:15,691363.0,0.0,0.0
11:28:15,691376.0,0.0,0.0
11:28:15,691387.0,0.0,0.0
11:28:15,691353.0,0.0,0.0
11:28:15,691386.0,0.0,0.0
11:28:15,691361.0,0.0,0.0
11:28:15,691366.0,0.0,0.0
11:28:15,691353.0,0.0,0.0
11:28:15,691286.0,0.0,0.0
11:28:15,691300.0,0.0,0.0
11:28:15,691296.0,0.0,0.0
11:28:15,691299.0,0.0,0.0
11:28:15,691306.0,0.0,0.0
11:28:15,691281.0,0.0,0.0
11:28:15,691280.0,0.0,0.0
11:28:15,691269.0,0.0,0.0
11:28:15,691319.0,0.0,0.0
11:28:15,691289.0,0.0,0.0
11:28:15,691244.0,0.0,0.0
11:28:15,691266.0,0.0,0.0
11:28:15,691241.0,0.0,0.0
11:28:15,691289.0,0.0,0.0
11:28:15,691305.0,0.0,0.0
11:28:15,691259.0,0.0,0.0
11:28:15,691282.0,0.0,0.0
11:28:15,691312.0,0.0,0.0
11:28:15,691320.0,0.0,0.0
11:28:15,691304.0,0.0,0.0
11:28:15,691300.0,0.0,0.0
11:28:15,691341.0,0.0,0.0
11:28:15,691318.0,0.0,0.0
11:28:15,691348.0,0.0,0.0
11:28:15,691338.0,0.0,0.0
11:28:15,691345.0,0.0,0.0
11:28:15,691301.0,0.0,0.0
11:28:15,691215.0,0.0,0.0
11:28:15,691208.0,0.0,0.0
11:28:15,691193.0,0.0,0.0
11:28:15,691193.0,0.0,0.0
11:28:15,691178.0,0.0,0.0
11:28:15,691134.0,0.0,0.0
11:28:16,691137.0,0.0,0.0
11:28:16,691110.0,0.0,0.0
11:28:16,691040.0,0.0,0.0
11:28:16,691009.0,0.0,0.0
11:28:16,690939.0,0.0,0.0
11:28:16,690929.0,0.0,0.0
11:28:16,690883.0,0.0,0.0
11:28:16,690816.0,0.0,0.0
11:28:16,690813.0,0.0,0.0
11:28:16,690768.0,0.0,0.0
11:28:16,690731.0,0.0,0.0
11:28:16,690697.0,0.0,0.0
11:28:16,690634.0,0.0,0.0
11:28:16,690610.0,0.0,0.0
11:28:16,690524.0,0.0,0.0
11:28:16,690481.0,0.0,0.0
11:28:16,690425.0,0.0,0.0
11:28:16,690326.0,0.0,0.0
11:28:16,690309.0,0.0,0.0
11:28:16,690257.0,0.0,0.0
11:28:16,690228.0,0.0,0.0
11:28:16,690137.0,0.0,0.0
11:28:16,690077.0,0.0,0.0
11:28:16,690026.0,0.0,0.0
11:28:16,689906.0,0.0,0.0
11:28:16,689789.0,0.0,0.0
11:28:16,689703.0,0.0,0.0
11:28:16,689728.0,0.0,0.0
11:28:16,689853.0,0.0,0.0
11:28:16,689832.0,0.0,0.0
11:28:16,689740.0,0.0,0.0
11:28:16,689712.0,0.0,0.0
11:28:16,689594.0,0.0,0.0
11:28:16,689471.0,0.0,0.0
11:28:16,689324.0,0.0,0.0
11:28:16,689280.0,0.0,0.0
11:28:16,689177.0,0.0,0.0
11:28:16,689073.0,0.0,0.0
11:28:16,689053.0,0.0,0.0
11:28:16,688978.0,0.0,0.0
11:28:16,688934.0,0.0,0.0
11:28:16,688871.0,0.0,0.0
11:28:16,688839.0,0.0,0.0
11:28:16,688898.0,0.0,0.0
11:28:16,688863.0,0.0,0.0
11:28:16,688835.0,0.0,0.0
11:28:16,688813.0,0.0,0.0
11:28:16,688729.0,0.0,0.0
11:28:16,688687.0,0.0,0.0
11:28:16,688634.0,0.0,0.0
11:28:16,688596.0,0.0,0.0
11:28:16,688526.0,0.0,0.0
11:28:16,688472.0,0.0,0.0
11:28:16,688451.0,0.0,0.0
11:28:16,688358.0,0.0,0.0
11:28:16,688329.0,0.0,0.0
11:28:16,688391.0,0.0,0.0
11:28:16,688431.0,0.0,0.0
11:28:16,688407.0,0.0,0.0
11:28:16,688316.0,0.0,0.0
11:28:16,688248.0,0.0,0.0
11:28:16,688221.0,0.0,0.0
11:28:16,688263.0,0.0,0.0
11:28:16,688228.0,0.0,0.0
11:28:16,688114.0,0.0,0.0
11:28:16,688118.0,0.0,0.0
11:28:16,688163.0,0.0,0.0
11:28:16,688061.0,0.0,0.0
11:28:16,687972.0,0.0,0.0
11:28:16,687824.0,0.0,0.0
11:28:16,687623.0,0.0,0.0
11:28:16,687590.0,0.0,0.0
11:28:16,687601.0,0.0,0.0
11:28:16,687616.0,0.0,0.0
11:28:16,687621.0,0.0,0.0
11:28:16,687675.0,0.0,0.0
11:28:16,687667.0,0.0,0.0
11:28:16,687584.0,0.0,0.0
11:28:16,687627.0,0.0,0.0
11:28:16,687618.0,0.0,0.0
11:28:16,687625.0,0.0,0.0
11:28:16,687617.0,0.0,0.0
11:28:16,687664.0,0.0,0.0
11:28:16,687655.0,0.0,0.0
11:28:16,687603.0,0.0,0.0
11:28:16,687599.0,0.0,0.0
11:28:16,687528.0,0.0,0.0
11:28:16,687462.0,0.0,0.0
11:28:16,687454.0,0.0,0.0
11:28:16,687383.0,0.0,0.0
11:28:16,687271.0,0.0,0.0
11:28:16,687029.0,0.0,0.0
11:28:16,686888.0,0.0,0.0
11:28:16,686735.0,0.0,0.0
11:28:16,686901.0,0.0,0.0
11:28:16,687063.0,0.0,0.0
11:28:16,687256.0,0.0,0.0
11:28:16,687402.0,0.0,0.0
11:28:16,687331.0,0.0,0.0
11:28:16,687391.0,0.0,0.0
11:28:16,687249.0,0.0,0.0
11:28:16,687158.0,0.0,0.0
11:28:16,687184.0,0.0,0.0
11:28:16,687022.0,0.0,0.0
11:28:16,687026.0,0.0,0.0
11:28:16,686981.0,0.0,0.0
11:28:16,686914.0,0.0,0.0
11:28:16,686776.0,0.0,0.0
11:28:16,686675.0,0.0,0.0
11:28:16,686748.0,0.0,0.0
11:28:16,686721.0,0.0,0.0
11:28:16,686675.0,0.0,0.0
11:28:16,686543.0,0.0,0.0
11:28:16,686352.0,0.0,0.0
11:28:16,686375.0,0.0,0.0
11:28:16,686558.0,0.0,0.0
11:28:16,686604.0,0.0,0.0
11:28:16,686511.0,0.0,0.0
11:28:16,686288.0,0.0,0.0
11:28:16,686028.0,0.0,0.0
11:28:16,686031.0,0.0,0.0
11:28:16,686049.0,0.0,0.0
11:28:16,686111.0,0.0,0.0
11:28:16,686108.0,0.0,0.0
11:28:16,686171.0,0.0,0.0
11:28:17,686155.0,0.0,0.0
11:28:17,686159.0,0.0,0.0
11:28:17,686221.0,0.0,0.0
11:28:17,686240.0,0.0,0.0
11:28:17,686325.0,0.0,0.0
11:28:17,686323.0,0.0,0.0
11:28:17,686385.0,0.0,0.0
11:28:17,686367.0,0.0,0.0
11:28:17,686423.0,0.0,0.0
11:28:17,686588.0,0.0,0.0
11:28:17,686568.0,0.0,0.0
11:28:17,686623.0,0.0,0.0
11:28:17,686675.0,0.0,0.0
11:28:17,686711.0,0.0,0.0
11:28:17,686891.0,0.0,0.0
11:28:17,686888.0,0.0,0.0
11:28:17,686951.0,0.0,0.0
11:28:17,687019.0,0.0,0.0
11:28:17,686958.0,0.0,0.0
11:28:17,687098.0,0.0,0.0
11:28:17,687203.0,0.0,0.0
11:28:17,687346.0,0.0,0.0
11:28:17,687451.0,0.0,0.0
11:28:17,687471.0,0.0,0.0
11:28:17,687668.0,0.0,0.0
11:28:17,687749.0,0.0,0.0
11:28:17,687769.0,0.0,0.0
11:28:17,687790.0,0.0,0.0
11:28:17,687943.0,0.0,0.0
11:28:17,688083.0,0.0,0.0
11:28:17,688068.0,0.0,0.0
11:28:17,688166.0,0.0,0.0
11:28:17,688249.0,0.0,0.0
11:28:17,688348.0,0.0,0.0
11:28:17,688563.0,0.0,0.0
11:28:17,688611.0,0.0,0.0
11:28:17,688728.0,0.0,0.0
11:28:17,688810.0,0.0,0.0
11:28:17,688758.0,0.0,0.0
11:28:17,688853.0,0.0,0.0
11:28:17,688938.0,0.0,0.0
11:28:17,689081.0,0.0,0.0
11:28:17,689191.0,0.0,0.0
11:28:17,689199.0,0.0,0.0
11:28:17,689374.0,0.0,0.0
11:28:17,689353.0,0.0,0.0
11:28:17,689524.0,0.0,0.0
11:28:17,689646.0,0.0,0.0
11:28:17,689557.0,0.0,0.0
11:28:17,689820.0,0.0,0.0
11:28:17,689835.0,0.0,0.0
11:28:17,689899.0,0.0,0.0
11:28:17,690013.0,0.0,0.0
11:28:17,689987.0,0.0,0.0
11:28:17,690079.0,0.0,0.0
11:28:17,690062.0,0.0,0.0
11:28:17,690198.0,0.0,0.0
11:28:17,690321.0,0.0,0.0
11:28:17,689720.0,0.0,0.0
11:28:17,690001.0,0.0,0.0
11:28:17,690370.0,0.0,0.0
11:28:17,690530.0,0.0,0.0
11:28:17,690626.0,0.0,0.0
11:28:17,690694.0,0.0,0.0
11:28:17,690953.0,0.0,0.0
11:28:17,691029.0,0.0,0.0
11:28:17,691155.0,0.0,0.0
11:28:17,691278.0,0.0,0.0
11:28:17,691289.0,0.0,0.0
11:28:17,691474.0,0.0,0.0
11:28:17,691421.0,0.0,0.0
11:28:17,691526.0,0.0,0.0
11:28:17,691626.0,0.0,0.0
11:28:17,691605.0,0.0,0.0
11:28:17,691830.0,0.0,0.0
11:28:17,691869.0,0.0,0.0
11:28:17,692061.0,0.0,0.0
11:28:17,692267.0,0.0,0.0
11:28:17,692127.0,0.0,0.0
11:28:17,692226.0,0.0,0.0
11:28:17,692415.0,0.0,0.0
11:28:17,692654.0,0.0,0.0
11:28:17,692864.0,0.0,0.0
11:28:17,692726.0,0.0,0.0
11:28:17,692726.0,0.0,0.0
11:28:17,692544.0,0.0,0.0
11:28:17,692583.0,0.0,0.0
11:28:17,692635.0,0.0,0.0
11:28:17,692598.0,0.0,0.0
11:28:17,692881.0,0.0,0.0
11:28:17,692936.0,0.0,0.0
11:28:17,693085.0,0.0,0.0
11:28:17,693179.0,0.0,0.0
11:28:17,693243.0,0.0,0.0
11:28:17,693334.0,0.0,0.0
11:28:17,693234.0,0.0,0.0
11:28:17,693334.0,0.0,0.0
11:28:17,693424.0,0.0,0.0
11:28:17,693392.0,0.0,0.0
11:28:17,693588.0,0.0,0.0
11:28:17,693546.0,0.0,0.0
11:28:17,693597.0,0.0,0.0
11:28:17,693666.0,0.0,0.0
11:28:17,693757.0,0.0,0.0
11:28:17,694143.0,0.0,0.0
11:28:17,694180.0,0.0,0.0
11:28:17,694139.0,0.0,0.0
11:28:17,693969.0,0.0,0.0
11:28:17,693874.0,0.0,0.0
11:28:17,694146.0,0.0,0.0
11:28:17,694184.0,0.0,0.0
11:28:17,694215.0,0.0,0.0
11:28:17,694304.0,0.0,0.0
11:28:17,694499.0,0.0,0.0
11:28:17,694814.0,0.0,0.0
11:28:17,694764.0,0.0,0.0
11:28:17,694819.0,0.0,0.0
11:28:17,695078.0,0.0,0.0
11:28:17,695146.0,0.0,0.0
11:28:17,695133.0,0.0,0.0
11:28:17,695038.0,0.0,0.0
11:28:17,694939.0,0.0,0.0
11:28:17,695111.0,0.0,0.0
11:28:17,695347.0,0.0,0.0
11:28:17,695519.0,0.0,0.0
11:28:18,695749.0,0.0,0.0
11:28:18,695724.0,0.0,0.0
11:28:18,695706.0,0.0,0.0
11:28:18,695708.0,0.0,0.0
11:28:18,695659.0,0.0,0.0
11:28:18,695557.0,0.0,0.0
11:28:18,695446.0,0.0,0.0
11:28:18,695376.0,0.0,0.0
11:28:18,695341.0,0.0,0.0
11:28:18,695270.0,0.0,0.0
11:28:18,695304.0,0.0,0.0
11:28:18,695244.0,0.0,0.0
11:28:18,695203.0,0.0,0.0
11:28:18,695218.0,0.0,0.0
11:28:18,694795.0,0.0,0.0
11:28:18,693080.0,0.0,0.0
11:28:18,692255.0,0.0,0.0
11:28:18,692306.0,0.0,0.0
11:28:18,692654.0,0.0,0.0
11:28:18,693217.0,0.0,0.0
11:28:18,693588.0,0.0,0.0
11:28:18,693866.0,0.0,0.0
11:28:18,694123.0,0.0,0.0
11:28:18,694243.0,0.0,0.0
11:28:18,694389.0,0.0,0.0
11:28:18,694388.0,0.0,0.0
11:28:18,694558.0,0.0,0.0
11:28:18,694519.0,0.0,0.0
11:28:18,694470.0,0.0,0.0
11:28:18,694581.0,0.0,0.0
11:28:18,694532.0,0.0,0.0
11:28:18,694649.0,0.0,0.0
11:28:18,694656.0,0.0,0.0
11:28:18,694611.0,0.0,0.0
11:28:18,694684.0,0.0,0.0
11:28:18,694653.0,0.0,0.0
11:28:18,694769.0,0.0,0.0
11:28:18,694801.0,0.0,0.0
11:28:18,694781.0,0.0,0.0
11:28:18,694867.0,0.0,0.0
11:28:18,694788.0,0.0,0.0
11:28:18,694874.0,0.0,0.0
11:28:18,694919.0,0.0,0.0
11:28:18,694818.0,0.0,0.0
11:28:18,694954.0,0.0,0.0
11:28:18,694917.0,0.0,0.0
11:28:18,695031.0,0.0,0.0
11:28:18,695122.0,0.0,0.0
11:28:18,695290.0,0.0,0.0
11:28:18,695584.0,0.0,0.0
11:28:18,695339.0,0.0,0.0
11:28:18,694882.0,0.0,0.0
11:28:18,694758.0,0.0,0.0
11:28:18,694711.0,0.0,0.0
11:28:18,694657.0,0.0,0.0
11:28:18,694850.0,0.0,0.0
11:28:18,694871.0,0.0,0.0
11:28:18,694772.0,0.0,0.0
11:28:18,694639.0,0.0,0.0
11:28:18,694614.0,0.0,0.0
11:28:18,694812.0,0.0,0.0
11:28:18,694848.0,0.0,0.0
11:28:18,694845.0,0.0,0.0
11:28:18,694769.0,0.0,0.0
11:28:18,694628.0,0.0,0.0
11:28:18,694732.0,0.0,0.0
11:28:18,694889.0,0.0,0.0
11:28:18,695054.0,0.0,0.0
11:28:18,695119.0,0.0,0.0
11:28:18,695024.0,0.0,0.0
11:28:18,694889.0,0.0,0.0
11:28:18,694800.0,0.0,0.0
11:28:18,694979.0,0.0,0.0
11:28:18,695021.0,0.0,0.0
11:28:18,694943.0,0.0,0.0
11:28:18,694930.0,0.0,0.0
11:28:18,694891.0,0.0,0.0
11:28:18,694871.0,0.0,0.0
11:28:18,694834.0,0.0,0.0
11:28:18,694834.0,0.0,0.0
11:28:18,694867.0,0.0,0.0
11:28:18,694697.0,0.0,0.0
11:28:18,694611.0,0.0,0.0
11:28:18,694551.0,0.0,0.0
11:28:18,694493.0,0.0,0.0
11:28:18,694431.0,0.0,0.0
11:28:18,694334.0,0.0,0.0
11:28:18,694314.0,0.0,0.0
11:28:18,694289.0,0.0,0.0
11:28:18,694227.0,0.0,0.0
11:28:18,694201.0,0.0,0.0
11:28:18,694149.0,0.0,0.0
11:28:18,694055.0,0.0,0.0
11:28:18,693995.0,0.0,0.0
11:28:18,693900.0,0.0,0.0
11:28:18,693884.0,0.0,0.0
11:28:18,693819.0,0.0,0.0
11:28:18,693763.0,0.0,0.0
11:28:18,693731.0,0.0,0.0
11:28:18,693700.0,0.0,0.0
11:28:18,693683.0,0.0,0.0
11:28:18,693594.0,0.0,0.0
11:28:18,693548.0,0.0,0.0
11:28:18,693523.0,0.0,0.0
11:28:18,693458.0,0.0,0.0
11:28:18,693469.0,0.0,0.0
11:28:18,693473.0,0.0,0.0
11:28:18,693461.0,0.0,0.0
11:28:18,693354.0,0.0,0.0
11:28:18,693265.0,0.0,0.0
11:28:18,693313.0,0.0,0.0
11:28:18,693339.0,0.0,0.0
11:28:18,693420.0,0.0,0.0
11:28:18,693467.0,0.0,0.0
11:28:18,693441.0,0.0,0.0
11:28:18,693443.0,0.0,0.0
11:28:18,693329.0,0.0,0.0
11:28:18,693276.0,0.0,0.0
11:28:18,693316.0,0.0,0.0
11:28:18,693299.0,0.0,0.0
11:28:18,693275.0,0.0,0.0
11:28:18,693204.0,0.0,0.0
11:28:18,693154.0,0.0,0.0
11:28:18,693117.0,0.0,0.0
11:28:18,693055.0,0.0,0.0
11:28:19,693048.0,0.0,0.0
11:28:19,692988.0,0.0,0.0
11:28:19,692983.0,0.0,0.0
11:28:19,693008.0,0.0,0.0
11:28:19,692990.0,0.0,0.0
11:28:19,693008.0,0.0,0.0
11:28:19,692966.0,0.0,0.0
11:28:19,692976.0,0.0,0.0
11:28:19,692954.0,0.0,0.0
11:28:19,692948.0,0.0,0.0
11:28:19,692970.0,0.0,0.0
11:28:19,692984.0,0.0,0.0
11:28:19,692986.0,0.0,0.0
11:28:19,692956.0,0.0,0.0
11:28:19,692953.0,0.0,0.0
11:28:19,693006.0,0.0,0.0
11:28:19,692963.0,0.0,0.0
11:28:19,692942.0,0.0,0.0
11:28:19,692896.0,0.0,0.0
11:28:19,692823.0,0.0,0.0
11:28:19,692827.0,0.0,0.0
11:28:19,692775.0,0.0,0.0
11:28:19,692736.0,0.0,0.0
11:28:19,692679.0,0.0,0.0
11:28:19,692652.0,0.0,0.0
11:28:19,692676.0,0.0,0.0
11:28:19,692644.0,0.0,0.0
11:28:19,692649.0,0.0,0.0
11:28:19,692621.0,0.0,0.0
11:28:19,692576.0,0.0,0.0
11:28:19,692574.0,0.0,0.0
11:28:19,692514.0,0.0,0.0
11:28:19,692448.0,0.0,0.0
11:28:19,692377.0,0.0,0.0
11:28:19,692293.0,0.0,0.0
11:28:19,692209.0,0.0,0.0
11:28:19,692169.0,0.0,0.0
11:28:19,692287.0,0.0,0.0
11:28:19,692340.0,0.0,0.0
11:28:19,692230.0,0.0,0.0
11:28:19,692166.0,0.0,0.0
11:28:19,692100.0,0.0,0.0
11:28:19,692066.0,0.0,0.0
11:28:19,691997.0,0.0,0.0
11:28:19,691921.0,0.0,0.0
11:28:19,691909.0,0.0,0.0
11:28:19,691869.0,0.0,0.0
11:28:19,691829.0,0.0,0.0
11:28:19,691804.0,0.0,0.0
11:28:19,691780.0,0.0,0.0
11:28:19,691758.0,0.0,0.0
11:28:19,691714.0,0.0,0.0
11:28:19,691703.0,0.0,0.0
11:28:19,691704.0,0.0,0.0
11:28:19,691646.0,0.0,0.0
11:28:19,691630.0,0.0,0.0
11:28:19,691526.0,0.0,0.0
11:28:19,691491.0,0.0,0.0
11:28:19,691458.0,0.0,0.0
11:28:19,691356.0,0.0,0.0
11:28:19,691177.0,0.0,0.0
11:28:19,691077.0,0.0,0.0
11:28:19,690981.0,0.0,0.0
11:28:19,690813.0,0.0,0.0
11:28:19,690889.0,0.0,0.0
11:28:19,690764.0,0.0,0.0
11:28:19,690853.0,0.0,0.0
11:28:19,690955.0,0.0,0.0
11:28:19,690983.0,0.0,0.0
11:28:19,691093.0,0.0,0.0
11:28:19,691033.0,0.0,0.0
11:28:19,691147.0,0.0,0.0
11:28:19,691139.0,0.0,0.0
11:28:19,691124.0,0.0,0.0
11:28:19,691229.0,0.0,0.0
11:28:19,691175.0,0.0,0.0
11:28:19,691242.0,0.0,0.0
11:28:19,691225.0,0.0,0.0
11:28:19,691224.0,0.0,0.0
11:28:19,691284.0,0.0,0.0
11:28:19,691175.0,0.0,0.0
11:28:19,691208.0,0.0,0.0
11:28:19,691233.0,0.0,0.0
11:28:19,691233.0,0.0,0.0
11:28:19,691328.0,0.0,0.0
11:28:19,691199.0,0.0,0.0
11:28:19,691204.0,0.0,0.0
11:28:19,691181.0,0.0,0.0
11:28:19,691067.0,0.0,0.0
11:28:19,691003.0,0.0,0.0
11:28:19,690862.0,0.0,0.0
11:28:19,690916.0,0.0,0.0
11:28:19,690830.0,0.0,0.0
11:28:19,690806.0,0.0,0.0
11:28:19,690828.0,0.0,0.0
11:28:19,690749.0,0.0,0.0
11:28:19,690841.0,0.0,0.0
11:28:19,690808.0,0.0,0.0
11:28:19,690828.0,0.0,0.0
11:28:19,690902.0,0.0,0.0
11:28:19,690853.0,0.0,0.0
11:28:19,690931.0,0.0,0.0
11:28:19,690931.0,0.0,0.0
11:28:19,690934.0,0.0,0.0
11:28:19,690989.0,0.0,0.0
11:28:19,690905.0,0.0,0.0
11:28:19,690986.0,0.0,0.0
11:28:19,690935.0,0.0,0.0
11:28:19,690962.0,0.0,0.0
11:28:19,691082.0,0.0,0.0
11:28:19,690980.0,0.0,0.0
11:28:19,691029.0,0.0,0.0
11:28:19,691004.0,0.0,0.0
11:28:19,690978.0,0.0,0.0
11:28:19,691058.0,0.0,0.0
11:28:19,690985.0,0.0,0.0
11:28:19,691088.0,0.0,0.0
11:28:19,691089.0,0.0,0.0
11:28:19,691026.0,0.0,0.0
11:28:19,691079.0,0.0,0.0
11:28:19,690986.0,0.0,0.0
11:28:19,691034.0,0.0,0.0
11:28:19,691009.0,0.0,0.0
11:28:19,690893.0,0.0,0.0
11:28:19,691027.0,0.0,0.0
11:28:20,691139.0,0.0,0.0
11:28:20,691244.0,0.0,0.0
11:28:20,691251.0,0.0,0.0
11:28:20,691124.0,0.0,0.0
11:28:20,691163.0,0.0,0.0
11:28:20,691059.0,0.0,0.0
11:28:20,691038.0,0.0,0.0
11:28:20,691038.0,0.0,0.0
11:28:20,690973.0,0.0,0.0
11:28:20,691052.0,0.0,0.0
11:28:20,691035.0,0.0,0.0
11:28:20,691063.0,0.0,0.0
11:28:20,691098.0,0.0,0.0
11:28:20,691034.0,0.0,0.0
11:28:20,691083.0,0.0,0.0
11:28:20,691045.0,0.0,0.0
11:28:20,691050.0,0.0,0.0
11:28:20,691077.0,0.0,0.0
11:28:20,691043.0,0.0,0.0
11:28:20,691095.0,0.0,0.0
11:28:20,691056.0,0.0,0.0
11:28:20,691069.0,0.0,0.0
11:28:20,691096.0,0.0,0.0
11:28:20,691038.0,0.0,0.0
11:28:20,691064.0,0.0,0.0
11:28:20,691041.0,0.0,0.0
11:28:20,691026.0,0.0,0.0
11:28:20,691056.0,0.0,0.0
11:28:20,691017.0,0.0,0.0
11:28:20,691044.0,0.0,0.0
11:28:20,691043.0,0.0,0.0
11:28:20,691040.0,0.0,0.0
11:28:20,691086.0,0.0,0.0
11:28:20,691058.0,0.0,0.0
11:28:20,691072.0,0.0,0.0
11:28:20,691056.0,0.0,0.0
11:28:20,691058.0,0.0,0.0
11:28:20,691104.0,0.0,0.0
11:28:20,691054.0,0.0,0.0
11:28:20,691079.0,0.0,0.0
11:28:20,691057.0,0.0,0.0
11:28:20,691049.0,0.0,0.0
11:28:20,691093.0,0.0,0.0
11:28:20,691081.0,0.0,0.0
11:28:20,691158.0,0.0,0.0
11:28:20,691121.0,0.0,0.0
11:28:20,691141.0,0.0,0.0
11:28:20,691214.0,0.0,0.0
11:28:20,691200.0,0.0,0.0
11:28:20,691278.0,0.0,0.0
11:28:20,691276.0,0.0,0.0
11:28:20,691268.0,0.0,0.0
11:28:20,691262.0,0.0,0.0
11:28:20,691258.0,0.0,0.0
11:28:20,691339.0,0.0,0.0
11:28:20,691326.0,0.0,0.0
11:28:20,691339.0,0.0,0.0
11:28:20,691380.0,0.0,0.0
11:28:20,691338.0,0.0,0.0
11:28:20,691392.0,0.0,0.0
11:28:20,691332.0,0.0,0.0
11:28:20,691319.0,0.0,0.0
11:28:20,691361.0,0.0,0.0
11:28:20,691291.0,0.0,0.0
11:28:20,691395.0,0.0,0.0
11:28:20,691382.0,0.0,0.0
11:28:20,691419.0,0.0,0.0
11:28:20,691464.0,0.0,0.0
11:28:20,691468.0,0.0,0.0
11:28:20,691595.0,0.0,0.0
11:28:20,691586.0,0.0,0.0
11:28:20,691669.0,0.0,0.0
11:28:20,691705.0,0.0,0.0
11:28:20,691689.0,0.0,0.0
11:28:20,691805.0,0.0,0.0
11:28:20,691821.0,0.0,0.0
11:28:20,691877.0,0.0,0.0
11:28:20,691943.0,0.0,0.0
11:28:20,691960.0,0.0,0.0
11:28:20,691813.0,0.0,0.0
11:28:20,691725.0,0.0,0.0
11:28:20,691990.0,0.0,0.0
11:28:20,692063.0,0.0,0.0
11:28:20,692123.0,0.0,0.0
11:28:20,692219.0,0.0,0.0
11:28:20,692140.0,0.0,0.0
11:28:20,692231.0,0.0,0.0
11:28:20,692394.0,0.0,0.0
11:28:20,692484.0,0.0,0.0
11:28:20,692526.0,0.0,0.0
11:28:20,692418.0,0.0,0.0
11:28:20,692452.0,0.0,0.0
11:28:20,692457.0,0.0,0.0
11:28:20,692401.0,0.0,0.0
11:28:20,692453.0,0.0,0.0
11:28:20,692379.0,0.0,0.0
11:28:20,692463.0,0.0,0.0
11:28:20,692488.0,0.0,0.0
11:28:20,692449.0,0.0,0.0
11:28:20,692546.0,0.0,0.0
11:28:20,692451.0,0.0,0.0
11:28:20,692485.0,0.0,0.0
11:28:20,692455.0,0.0,0.0
11:28:20,692365.0,0.0,0.0
11:28:20,692393.0,0.0,0.0
11:28:20,692331.0,0.0,0.0
11:28:20,692382.0,0.0,0.0
11:28:20,692361.0,0.0,0.0
11:28:20,692298.0,0.0,0.0
11:28:20,692351.0,0.0,0.0
11:28:20,692279.0,0.0,0.0
11:28:20,692270.0,0.0,0.0
11:28:20,692263.0,0.0,0.0
11:28:20,692204.0,0.0,0.0
11:28:20,692234.0,0.0,0.0
11:28:20,692101.0,0.0,0.0
11:28:20,692156.0,0.0,0.0
11:28:20,692101.0,0.0,0.0
11:28:20,692033.0,0.0,0.0
11:28:20,692096.0,0.0,0.0
11:28:20,691997.0,0.0,0.0
11:28:20,692051.0,0.0,0.0
11:28:20,691978.0,0.0,0.0
11:28:20,691944.0,0.0,0.0
11:28:20,692006.0,0.0,0.0
11:28:21,691906.0,0.0,0.0
11:28:21,691983.0,0.0,0.0
11:28:21,691937.0,0.0,0.0
11:28:21,691967.0,0.0,0.0
11:28:21,692016.0,0.0,0.0
11:28:21,691943.0,0.0,0.0
11:28:21,692056.0,0.0,0.0
11:28:21,692029.0,0.0,0.0
11:28:21,692003.0,0.0,0.0
11:28:21,692055.0,0.0,0.0
11:28:21,692014.0,0.0,0.0
11:28:21,692143.0,0.0,0.0
11:28:21,692122.0,0.0,0.0
11:28:21,692202.0,0.0,0.0
11:28:21,692322.0,0.0,0.0
11:28:21,692331.0,0.0,0.0
11:28:21,692479.0,0.0,0.0
11:28:21,692489.0,0.0,0.0
11:28:21,692529.0,0.0,0.0
11:28:21,692635.0,0.0,0.0
11:28:21,692564.0,0.0,0.0
11:28:21,692679.0,0.0,0.0
11:28:21,692644.0,0.0,0.0
11:28:21,692628.0,0.0,0.0
11:28:21,692673.0,0.0,0.0
11:28:21,692591.0,0.0,0.0
11:28:21,692694.0,0.0,0.0
11:28:21,692661.0,0.0,0.0
11:28:21,692654.0,0.0,0.0
11:28:21,692748.0,0.0,0.0
11:28:21,692703.0,0.0,0.0
11:28:21,692809.0,0.0,0.0
11:28:21,692760.0,0.0,0.0
11:28:21,692759.0,0.0,0.0
11:28:21,692836.0,0.0,0.0
11:28:21,692774.0,0.0,0.0
11:28:21,692894.0,0.0,0.0
11:28:21,692879.0,0.0,0.0
11:28:21,692915.0,0.0,0.0
11:28:21,693063.0,0.0,0.0
11:28:21,693042.0,0.0,0.0
11:28:21,693123.0,0.0,0.0
11:28:21,693151.0,0.0,0.0
11:28:21,693201.0,0.0,0.0
11:28:21,693365.0,0.0,0.0
11:28:21,693439.0,0.0,0.0
11:28:21,693484.0,0.0,0.0
11:28:21,693482.0,0.0,0.0
11:28:21,693509.0,0.0,0.0
11:28:21,693754.0,0.0,0.0
11:28:21,693881.0,0.0,0.0
11:28:21,693748.0,0.0,0.0
11:28:21,693679.0,0.0,0.0
11:28:21,693599.0,0.0,0.0
11:28:21,693556.0,0.0,0.0
11:28:21,693503.0,0.0,0.0
11:28:21,693442.0,0.0,0.0
11:28:21,693441.0,0.0,0.0
11:28:21,693411.0,0.0,0.0
11:28:21,693441.0,0.0,0.0
11:28:21,693461.0,0.0,0.0
11:28:21,693433.0,0.0,0.0
11:28:21,693452.0,0.0,0.0
11:28:21,693366.0,0.0,0.0
11:28:21,693358.0,0.0,0.0
11:28:21,693368.0,0.0,0.0
11:28:21,693317.0,0.0,0.0
11:28:21,693353.0,0.0,0.0
11:28:21,693313.0,0.0,0.0
11:28:21,693354.0,0.0,0.0
11:28:21,693384.0,0.0,0.0
11:28:21,693353.0,0.0,0.0
11:28:21,693377.0,0.0,0.0
11:28:21,693353.0,0.0,0.0
11:28:21,693367.0,0.0,0.0
11:28:21,693364.0,0.0,0.0
11:28:21,693324.0,0.0,0.0
11:28:21,693371.0,0.0,0.0
11:28:21,693377.0,0.0,0.0
11:28:21,693416.0,0.0,0.0
11:28:21,693451.0,0.0,0.0
11:28:21,693493.0,0.0,0.0
11:28:21,693530.0,0.0,0.0
11:28:21,693544.0,0.0,0.0
11:28:21,693591.0,0.0,0.0
11:28:21,693571.0,0.0,0.0
11:28:21,693618.0,0.0,0.0
11:28:21,693683.0,0.0,0.0
11:28:21,693703.0,0.0,0.0
11:28:21,693884.0,0.0,0.0
11:28:21,693941.0,0.0,0.0
11:28:21,694120.0,0.0,0.0
11:28:21,694261.0,0.0,0.0
11:28:21,694321.0,0.0,0.0
11:28:21,694523.0,0.0,0.0
11:28:21,694621.0,0.0,0.0
11:28:21,694741.0,0.0,0.0
11:28:21,694863.0,0.0,0.0
11:28:21,694911.0,0.0,0.0
11:28:21,695060.0,0.0,0.0
11:28:21,695065.0,0.0,0.0
11:28:21,695117.0,0.0,0.0
11:28:21,695144.0,0.0,0.0
11:28:21,695134.0,0.0,0.0
11:28:21,695196.0,0.0,0.0
11:28:21,695150.0,0.0,0.0
11:28:21,695133.0,0.0,0.0
11:28:21,695118.0,0.0,0.0
11:28:21,695089.0,0.0,0.0
11:28:21,695161.0,0.0,0.0
11:28:21,695104.0,0.0,0.0
11:28:21,695120.0,0.0,0.0
11:28:21,695134.0,0.0,0.0
11:28:21,695099.0,0.0,0.0
11:28:21,695161.0,0.0,0.0
11:28:21,695124.0,0.0,0.0
11:28:21,695136.0,0.0,0.0
11:28:21,695180.0,0.0,0.0
11:28:21,695164.0,0.0,0.0
11:28:21,695191.0,0.0,0.0
11:28:21,695153.0,0.0,0.0
11:28:21,695164.0,0.0,0.0
11:28:21,695193.0,0.0,0.0
11:28:21,695149.0,0.0,0.0
11:28:22,695195.0,0.0,0.0
11:28:22,695191.0,0.0,0.0
11:28:22,695228.0,0.0,0.0
11:28:22,695254.0,0.0,0.0
11:28:22,695251.0,0.0,0.0
11:28:22,695350.0,0.0,0.0
11:28:22,695333.0,0.0,0.0
11:28:22,695321.0,0.0,0.0
11:28:22,695343.0,0.0,0.0
11:28:22,695368.0,0.0,0.0
11:28:22,695593.0,0.0,0.0
11:28:22,695706.0,0.0,0.0
11:28:22,695689.0,0.0,0.0
11:28:22,695719.0,0.0,0.0
11:28:22,695731.0,0.0,0.0
11:28:22,695776.0,0.0,0.0
11:28:22,695822.0,0.0,0.0
11:28:22,695829.0,0.0,0.0
11:28:22,695833.0,0.0,0.0
11:28:22,695792.0,0.0,0.0
11:28:22,695814.0,0.0,0.0
11:28:22,695870.0,0.0,0.0
11:28:22,695882.0,0.0,0.0
11:28:22,695951.0,0.0,0.0
11:28:22,695961.0,0.0,0.0
11:28:22,695945.0,0.0,0.0
11:28:22,695956.0,0.0,0.0
11:28:22,695949.0,0.0,0.0
11:28:22,695989.0,0.0,0.0
11:28:22,695941.0,0.0,0.0
11:28:22,695959.0,0.0,0.0
11:28:22,695969.0,0.0,0.0
11:28:22,695956.0,0.0,0.0
11:28:22,696009.0,0.0,0.0
11:28:22,695973.0,0.0,0.0
11:28:22,695943.0,0.0,0.0
11:28:22,695959.0,0.0,0.0
11:28:22,695980.0,0.0,0.0
11:28:22,696003.0,0.0,0.0
11:28:22,695978.0,0.0,0.0
11:28:22,695984.0,0.0,0.0
11:28:22,695950.0,0.0,0.0
11:28:22,695999.0,0.0,0.0
11:28:22,696046.0,0.0,0.0
11:28:22,696044.0,0.0,0.0
11:28:22,696099.0,0.0,0.0
11:28:22,696069.0,0.0,0.0
11:28:22,696163.0,0.0,0.0
11:28:22,696204.0,0.0,0.0
11:28:22,696246.0,0.0,0.0
11:28:22,696356.0,0.0,0.0
11:28:22,696353.0,0.0,0.0
11:28:22,696407.0,0.0,0.0
11:28:22,696449.0,0.0,0.0
11:28:22,696436.0,0.0,0.0
11:28:22,696510.0,0.0,0.0
11:28:22,696491.0,0.0,0.0
11:28:22,696524.0,0.0,0.0
11:28:22,696524.0,0.0,0.0
11:28:22,696470.0,0.0,0.0
11:28:22,696506.0,0.0,0.0
11:28:22,696489.0,0.0,0.0
11:28:22,696520.0,0.0,0.0
11:28:22,696558.0,0.0,0.0
11:28:22,696572.0,0.0,0.0
11:28:22,696557.0,0.0,0.0
11:28:22,696533.0,0.0,0.0
11:28:22,696549.0,0.0,0.0
11:28:22,696575.0,0.0,0.0
11:28:22,696521.0,0.0,0.0
11:28:22,696558.0,0.0,0.0
11:28:22,696562.0,0.0,0.0
11:28:22,696573.0,0.0,0.0
11:28:22,696604.0,0.0,0.0
11:28:22,696622.0,0.0,0.0
11:28:22,696673.0,0.0,0.0
11:28:22,696714.0,0.0,0.0
11:28:22,696721.0,0.0,0.0
11:28:22,696768.0,0.0,0.0
11:28:22,696746.0,0.0,0.0
11:28:22,696776.0,0.0,0.0
11:28:22,696768.0,0.0,0.0
11:28:22,696781.0,0.0,0.0
11:28:22,696816.0,0.0,0.0
11:28:22,696786.0,0.0,0.0
11:28:22,696800.0,0.0,0.0
11:28:22,696795.0,0.0,0.0
11:28:22,696759.0,0.0,0.0
11:28:22,696772.0,0.0,0.0
11:28:22,696741.0,0.0,0.0
11:28:22,696711.0,0.0,0.0
11:28:22,696656.0,0.0,0.0
11:28:22,696738.0,0.0,0.0
11:28:22,696898.0,0.0,0.0
11:28:22,696865.0,0.0,0.0
11:28:22,696817.0,0.0,0.0
11:28:22,696733.0,0.0,0.0
11:28:22,696663.0,0.0,0.0
11:28:22,696714.0,0.0,0.0
11:28:22,696706.0,0.0,0.0
11:28:22,696713.0,0.0,0.0
11:28:22,696707.0,0.0,0.0
11:28:22,696686.0,0.0,0.0
11:28:22,696704.0,0.0,0.0
11:28:22,696656.0,0.0,0.0
11:28:22,696659.0,0.0,0.0
11:28:22,696646.0,0.0,0.0
11:28:22,696624.0,0.0,0.0
11:28:22,696634.0,0.0,0.0
11:28:22,696622.0,0.0,0.0
11:28:22,696614.0,0.0,0.0
11:28:22,696613.0,0.0,0.0
11:28:22,696611.0,0.0,0.0
11:28:22,696596.0,0.0,0.0
11:28:22,696525.0,0.0,0.0
11:28:22,696539.0,0.0,0.0
11:28:22,696521.0,0.0,0.0
11:28:22,696489.0,0.0,0.0
11:28:22,696507.0,0.0,0.0
11:28:22,696449.0,0.0,0.0
11:28:22,696430.0,0.0,0.0
11:28:22,696399.0,0.0,0.0
11:28:22,696379.0,0.0,0.0
11:28:22,696403.0,0.0,0.0
11:28:22,696368.0,0.0,0.0
11:28:22,696405.0,0.0,0.0
11:28:23,696403.0,0.0,0.0
11:28:23,696429.0,0.0,0.0
11:28:23,696443.0,0.0,0.0
11:28:23,696396.0,0.0,0.0
11:28:23,696404.0,0.0,0.0
11:28:23,696378.0,0.0,0.0
11:28:23,696356.0,0.0,0.0
11:28:23,696354.0,0.0,0.0
11:28:23,696312.0,0.0,0.0
11:28:23,696324.0,0.0,0.0
11:28:23,696349.0,0.0,0.0
11:28:23,696356.0,0.0,0.0
11:28:23,696349.0,0.0,0.0
11:28:23,696294.0,0.0,0.0
11:28:23,696312.0,0.0,0.0
11:28:23,696284.0,0.0,0.0
11:28:23,696249.0,0.0,0.0
11:28:23,696267.0,0.0,0.0
11:28:23,696201.0,0.0,0.0
11:28:23,696199.0,0.0,0.0
11:28:23,696180.0,0.0,0.0
11:28:23,696170.0,0.0,0.0
11:28:23,696184.0,0.0,0.0
11:28:23,696138.0,0.0,0.0
11:28:23,696147.0,0.0,0.0
11:28:23,696129.0,0.0,0.0
11:28:23,696081.0,0.0,0.0
11:28:23,696053.0,0.0,0.0
11:28:23,695994.0,0.0,0.0
11:28:23,696006.0,0.0,0.0
11:28:23,696018.0,0.0,0.0
11:28:23,695966.0,0.0,0.0
11:28:23,695963.0,0.0,0.0
11:28:23,695917.0,0.0,0.0
11:28:23,695939.0,0.0,0.0
11:28:23,695913.0,0.0,0.0
11:28:23,695907.0,0.0,0.0
11:28:23,695888.0,0.0,0.0
11:28:23,695851.0,0.0,0.0
11:28:23,695849.0,0.0,0.0
11:28:23,695813.0,0.0,0.0
11:28:23,695798.0,0.0,0.0
11:28:23,695786.0,0.0,0.0
11:28:23,695703.0,0.0,0.0
11:28:23,695696.0,0.0,0.0
11:28:23,695688.0,0.0,0.0
11:28:23,695654.0,0.0,0.0
11:28:23,695588.0,0.0,0.0
11:28:23,695616.0,0.0,0.0
11:28:23,695786.0,0.0,0.0
11:28:23,695763.0,0.0,0.0
11:28:23,695645.0,0.0,0.0
11:28:23,695569.0,0.0,0.0
11:28:23,695496.0,0.0,0.0
11:28:23,695504.0,0.0,0.0
11:28:23,695432.0,0.0,0.0
11:28:23,695393.0,0.0,0.0
11:28:23,695380.0,0.0,0.0
11:28:23,695319.0,0.0,0.0
11:28:23,695303.0,0.0,0.0
11:28:23,695274.0,0.0,0.0
11:28:23,695249.0,0.0,0.0
11:28:23,695249.0,0.0,0.0
11:28:23,695201.0,0.0,0.0
11:28:23,695164.0,0.0,0.0
11:28:23,695151.0,0.0,0.0
11:28:23,695140.0,0.0,0.0
11:28:23,695154.0,0.0,0.0
11:28:23,695126.0,0.0,0.0
11:28:23,695148.0,0.0,0.0
11:28:23,695109.0,0.0,0.0
11:28:23,695086.0,0.0,0.0
11:28:23,695096.0,0.0,0.0
11:28:23,695064.0,0.0,0.0
11:28:23,695068.0,0.0,0.0
11:28:23,695037.0,0.0,0.0
11:28:23,695011.0,0.0,0.0
11:28:23,695009.0,0.0,0.0
11:28:23,694974.0,0.0,0.0
11:28:23,694975.0,0.0,0.0
11:28:23,694938.0,0.0,0.0
11:28:23,694909.0,0.0,0.0
11:28:23,694893.0,0.0,0.0
11:28:23,694863.0,0.0,0.0
11:28:23,694866.0,0.0,0.0
11:28:23,694796.0,0.0,0.0
11:28:23,694758.0,0.0,0.0
11:28:23,694749.0,0.0,0.0
11:28:23,694714.0,0.0,0.0
11:28:23,694719.0,0.0,0.0
11:28:23,694662.0,0.0,0.0
11:28:23,694628.0,0.0,0.0
11:28:23,694653.0,0.0,0.0
11:28:23,694659.0,0.0,0.0
11:28:23,694791.0,0.0,0.0
11:28:23,694848.0,0.0,0.0
11:28:23,694936.0,0.0,0.0
11:28:23,694971.0,0.0,0.0
11:28:23,694922.0,0.0,0.0
11:28:23,694901.0,0.0,0.0
11:28:23,694829.0,0.0,0.0
11:28:23,694750.0,0.0,0.0
11:28:23,694712.0,0.0,0.0
11:28:23,694596.0,0.0,0.0
11:28:23,694546.0,0.0,0.0
11:28:23,694453.0,0.0,0.0
11:28:23,694396.0,0.0,0.0
11:28:23,694354.0,0.0,0.0
11:28:23,694268.0,0.0,0.0
11:28:23,694286.0,0.0,0.0
11:28:23,694257.0,0.0,0.0
11:28:23,694227.0,0.0,0.0
11:28:23,694213.0,0.0,0.0
11:28:23,694160.0,0.0,0.0
11:28:23,694190.0,0.0,0.0
11:28:23,694080.0,0.0,0.0
11:28:23,694013.0,0.0,0.0
11:28:23,693988.0,0.0,0.0
11:28:23,693926.0,0.0,0.0
11:28:23,693926.0,0.0,0.0
11:28:23,693813.0,0.0,0.0
11:28:23,693796.0,0.0,0.0
11:28:23,693779.0,0.0,0.0
11:28:23,693684.0,0.0,0.0
11:28:23,693696.0,0.0,0.0
11:28:24,693600.0,0.0,0.0
11:28:24,693574.0,0.0,0.0
11:28:24,693584.0,0.0,0.0
11:28:24,693474.0,0.0,0.0
11:28:24,693447.0,0.0,0.0
11:28:24,693463.0,0.0,0.0
11:28:24,693598.0,0.0,0.0
11:28:24,693660.0,0.0,0.0
11:28:24,693511.0,0.0,0.0
11:28:24,693499.0,0.0,0.0
11:28:24,693396.0,0.0,0.0
11:28:24,693364.0,0.0,0.0
11:28:24,693328.0,0.0,0.0
11:28:24,693254.0,0.0,0.0
11:28:24,693249.0,0.0,0.0
11:28:24,693164.0,0.0,0.0
11:28:24,693164.0,0.0,0.0
11:28:24,693164.0,0.0,0.0
11:28:24,693085.0,0.0,0.0
11:28:24,693119.0,0.0,0.0
11:28:24,693024.0,0.0,0.0
11:28:24,693014.0,0.0,0.0
11:28:24,692994.0,0.0,0.0
11:28:24,692902.0,0.0,0.0
11:28:24,692918.0,0.0,0.0
11:28:24,692829.0,0.0,0.0
11:28:24,692824.0,0.0,0.0
11:28:24,692819.0,0.0,0.0
11:28:24,692738.0,0.0,0.0
11:28:24,692783.0,0.0,0.0
11:28:24,692700.0,0.0,0.0
11:28:24,692736.0,0.0,0.0
11:28:24,692707.0,0.0,0.0
11:28:24,692666.0,0.0,0.0
11:28:24,692718.0,0.0,0.0
11:28:24,692655.0,0.0,0.0
11:28:24,692674.0,0.0,0.0
11:28:24,692668.0,0.0,0.0
11:28:24,692635.0,0.0,0.0
11:28:24,692698.0,0.0,0.0
11:28:24,692605.0,0.0,0.0
11:28:24,692636.0,0.0,0.0
11:28:24,692640.0,0.0,0.0
11:28:24,692580.0,0.0,0.0
11:28:24,692573.0,0.0,0.0
11:28:24,692501.0,0.0,0.0
11:28:24,692529.0,0.0,0.0
11:28:24,692532.0,0.0,0.0
11:28:24,692517.0,0.0,0.0
11:28:24,692532.0,0.0,0.0
11:28:24,692431.0,0.0,0.0
11:28:24,692405.0,0.0,0.0
11:28:24,692361.0,0.0,0.0
11:28:24,692333.0,0.0,0.0
11:28:24,692298.0,0.0,0.0
11:28:24,692233.0,0.0,0.0
11:28:24,692226.0,0.0,0.0
11:28:24,692142.0,0.0,0.0
11:28:24,692032.0,0.0,0.0
11:28:24,691966.0,0.0,0.0
11:28:24,691823.0,0.0,0.0
11:28:24,691900.0,0.0,0.0
11:28:24,691938.0,0.0,0.0
11:28:24,691957.0,0.0,0.0
11:28:24,692074.0,0.0,0.0
11:28:24,692115.0,0.0,0.0
11:28:24,692236.0,0.0,0.0
11:28:24,692288.0,0.0,0.0
11:28:24,692362.0,0.0,0.0
11:28:24,692485.0,0.0,0.0
11:28:24,692501.0,0.0,0.0
11:28:24,692578.0,0.0,0.0
11:28:24,692592.0,0.0,0.0
11:28:24,692593.0,0.0,0.0
11:28:24,692686.0,0.0,0.0
11:28:24,692686.0,0.0,0.0
11:28:24,692729.0,0.0,0.0
11:28:24,692720.0,0.0,0.0
11:28:24,692726.0,0.0,0.0
11:28:24,692828.0,0.0,0.0
11:28:24,692799.0,0.0,0.0
11:28:24,692807.0,0.0,0.0
11:28:24,692836.0,0.0,0.0
11:28:24,692807.0,0.0,0.0
11:28:24,692802.0,0.0,0.0
11:28:24,692750.0,0.0,0.0
11:28:24,692701.0,0.0,0.0
11:28:24,692748.0,0.0,0.0
11:28:24,692865.0,0.0,0.0
11:28:24,692926.0,0.0,0.0
11:28:24,692817.0,0.0,0.0
11:28:24,692730.0,0.0,0.0
11:28:24,692698.0,0.0,0.0
11:28:24,692650.0,0.0,0.0
11:28:24,692676.0,0.0,0.0
11:28:24,692636.0,0.0,0.0
11:28:24,692632.0,0.0,0.0
11:28:24,692630.0,0.0,0.0
11:28:24,692633.0,0.0,0.0
11:28:24,692633.0,0.0,0.0
11:28:24,692605.0,0.0,0.0
11:28:24,692594.0,0.0,0.0
11:28:24,692556.0,0.0,0.0
11:28:24,692511.0,0.0,0.0
11:28:24,692541.0,0.0,0.0
11:28:24,692511.0,0.0,0.0
11:28:24,692516.0,0.0,0.0
11:28:24,692518.0,0.0,0.0
11:28:24,692444.0,0.0,0.0
11:28:24,692416.0,0.0,0.0
11:28:24,692406.0,0.0,0.0
11:28:24,692436.0,0.0,0.0
11:28:24,692409.0,0.0,0.0
11:28:24,692373.0,0.0,0.0
11:28:24,692375.0,0.0,0.0
11:28:24,692324.0,0.0,0.0
11:28:24,692363.0,0.0,0.0
11:28:24,692381.0,0.0,0.0
11:28:24,692390.0,0.0,0.0
11:28:24,692433.0,0.0,0.0
11:28:24,692414.0,0.0,0.0
11:28:24,692457.0,0.0,0.0
11:28:24,692451.0,0.0,0.0
11:28:24,692421.0,0.0,0.0
11:28:24,692428.0,0.0,0.0
11:28:25,692367.0,0.0,0.0
11:28:25,692398.0,0.0,0.0
11:28:25,692370.0,0.0,0.0
11:28:25,692380.0,0.0,0.0
11:28:25,692441.0,0.0,0.0
11:28:25,692450.0,0.0,0.0
11:28:25,692488.0,0.0,0.0
11:28:25,692468.0,0.0,0.0
11:28:25,692460.0,0.0,0.0
11:28:25,692483.0,0.0,0.0
11:28:25,692444.0,0.0,0.0
11:28:25,692496.0,0.0,0.0
11:28:25,692510.0,0.0,0.0
11:28:25,692540.0,0.0,0.0
11:28:25,692578.0,0.0,0.0
11:28:25,692543.0,0.0,0.0
11:28:25,692586.0,0.0,0.0
11:28:25,692596.0,0.0,0.0
11:28:25,692560.0,0.0,0.0
11:28:25,692604.0,0.0,0.0
11:28:25,692617.0,0.0,0.0
11:28:25,692654.0,0.0,0.0
11:28:25,692663.0,0.0,0.0
11:28:25,692676.0,0.0,0.0
11:28:25,692712.0,0.0,0.0
11:28:25,692707.0,0.0,0.0
11:28:25,692795.0,0.0,0.0
11:28:25,692784.0,0.0,0.0
11:28:25,692786.0,0.0,0.0
11:28:25,692877.0,0.0,0.0
11:28:25,692873.0,0.0,0.0
11:28:25,692900.0,0.0,0.0
11:28:25,692926.0,0.0,0.0
11:28:25,692917.0,0.0,0.0
11:28:25,692904.0,0.0,0.0
11:28:25,692932.0,0.0,0.0
11:28:25,692963.0,0.0,0.0
11:28:25,692978.0,0.0,0.0
11:28:25,692981.0,0.0,0.0
11:28:25,693011.0,0.0,0.0
11:28:25,692986.0,0.0,0.0
11:28:25,693013.0,0.0,0.0
11:28:25,692981.0,0.0,0.0
11:28:25,692973.0,0.0,0.0
11:28:25,693096.0,0.0,0.0
11:28:25,693209.0,0.0,0.0
11:28:25,693238.0,0.0,0.0
11:28:25,693177.0,0.0,0.0
11:28:25,693146.0,0.0,0.0
11:28:25,693187.0,0.0,0.0
11:28:25,693151.0,0.0,0.0
11:28:25,693188.0,0.0,0.0
11:28:25,693193.0,0.0,0.0
11:28:25,693183.0,0.0,0.0
11:28:25,693161.0,0.0,0.0
11:28:25,693094.0,0.0,0.0
11:28:25,693107.0,0.0,0.0
11:28:25,693076.0,0.0,0.0
11:28:25,692993.0,0.0,0.0
11:28:25,692947.0,0.0,0.0
11:28:25,692833.0,0.0,0.0
11:28:25,692791.0,0.0,0.0
11:28:25,692711.0,0.0,0.0
11:28:25,692682.0,0.0,0.0
11:28:25,692713.0,0.0,0.0
11:28:25,692652.0,0.0,0.0
11:28:25,692658.0,0.0,0.0
11:28:25,692611.0,0.0,0.0
11:28:25,692558.0,0.0,0.0
11:28:25,692603.0,0.0,0.0
11:28:25,692569.0,0.0,0.0
11:28:25,692609.0,0.0,0.0
11:28:25,692572.0,0.0,0.0
11:28:25,692552.0,0.0,0.0
11:28:25,692558.0,0.0,0.0
11:28:25,692506.0,0.0,0.0
11:28:25,692529.0,0.0,0.0
11:28:25,692536.0,0.0,0.0
11:28:25,692499.0,0.0,0.0
11:28:25,692487.0,0.0,0.0
11:28:25,692396.0,0.0,0.0
11:28:25,692413.0,0.0,0.0
11:28:25,692408.0,0.0,0.0
11:28:25,692371.0,0.0,0.0
11:28:25,692401.0,0.0,0.0
11:28:25,692396.0,0.0,0.0
11:28:25,692426.0,0.0,0.0
11:28:25,692413.0,0.0,0.0
11:28:25,692414.0,0.0,0.0
11:28:25,692448.0,0.0,0.0
11:28:25,692373.0,0.0,0.0
11:28:25,692379.0,0.0,0.0
11:28:25,692388.0,0.0,0.0
11:28:25,692374.0,0.0,0.0
11:28:25,692396.0,0.0,0.0
11:28:25,692368.0,0.0,0.0
11:28:25,692386.0,0.0,0.0
11:28:25,692357.0,0.0,0.0
11:28:25,692316.0,0.0,0.0
11:28:25,692353.0,0.0,0.0
11:28:25,692254.0,0.0,0.0
11:28:25,692311.0,0.0,0.0
11:28:25,692303.0,0.0,0.0
11:28:25,692311.0,0.0,0.0
11:28:25,692359.0,0.0,0.0
11:28:25,692296.0,0.0,0.0
11:28:25,692384.0,0.0,0.0
11:28:25,692429.0,0.0,0.0
11:28:25,692444.0,0.0,0.0
11:28:25,692476.0,0.0,0.0
11:28:25,692469.0,0.0,0.0
11:28:25,692561.0,0.0,0.0
11:28:25,692616.0,0.0,0.0
11:28:25,692676.0,0.0,0.0
11:28:25,692716.0,0.0,0.0
11:28:25,692704.0,0.0,0.0
11:28:25,692701.0,0.0,0.0
11:28:25,692696.0,0.0,0.0
11:28:25,692683.0,0.0,0.0
11:28:25,692683.0,0.0,0.0
11:28:25,692619.0,0.0,0.0
11:28:25,692609.0,0.0,0.0
11:28:25,692602.0,0.0,0.0
11:28:25,692553.0,0.0,0.0
11:28:26,692518.0,0.0,0.0
11:28:26,692412.0,0.0,0.0
11:28:26,692559.0,0.0,0.0
11:28:26,692699.0,0.0,0.0
11:28:26,692694.0,0.0,0.0
11:28:26,692613.0,0.0,0.0
11:28:26,692531.0,0.0,0.0
11:28:26,692497.0,0.0,0.0
11:28:26,692418.0,0.0,0.0
11:28:26,692401.0,0.0,0.0
11:28:26,692443.0,0.0,0.0
11:28:26,692431.0,0.0,0.0
11:28:26,692464.0,0.0,0.0
11:28:26,692444.0,0.0,0.0
11:28:26,692420.0,0.0,0.0
11:28:26,692453.0,0.0,0.0
11:28:26,692375.0,0.0,0.0
11:28:26,692427.0,0.0,0.0
11:28:26,692435.0,0.0,0.0
11:28:26,692409.0,0.0,0.0
11:28:26,692436.0,0.0,0.0
11:28:26,692446.0,0.0,0.0
11:28:26,692498.0,0.0,0.0
11:28:26,692530.0,0.0,0.0
11:28:26,692544.0,0.0,0.0
11:28:26,692595.0,0.0,0.0
11:28:26,692620.0,0.0,0.0
11:28:26,692670.0,0.0,0.0
11:28:26,692749.0,0.0,0.0
11:28:26,692837.0,0.0,0.0
11:28:26,692923.0,0.0,0.0
11:28:26,693001.0,0.0,0.0
11:28:26,693106.0,0.0,0.0
11:28:26,693173.0,0.0,0.0
11:28:26,693233.0,0.0,0.0
11:28:26,693300.0,0.0,0.0
11:28:26,693341.0,0.0,0.0
11:28:26,693430.0,0.0,0.0
11:28:26,693451.0,0.0,0.0
11:28:26,693512.0,0.0,0.0
11:28:26,693574.0,0.0,0.0
11:28:26,693587.0,0.0,0.0
11:28:26,693614.0,0.0,0.0
11:28:26,693632.0,0.0,0.0
11:28:26,693641.0,0.0,0.0
11:28:26,693675.0,0.0,0.0
11:28:26,693666.0,0.0,0.0
11:28:26,693733.0,0.0,0.0
11:28:26,693718.0,0.0,0.0
11:28:26,693712.0,0.0,0.0
11:28:26,693779.0,0.0,0.0
11:28:26,693769.0,0.0,0.0
11:28:26,693796.0,0.0,0.0
11:28:26,693809.0,0.0,0.0
11:28:26,693804.0,0.0,0.0
11:28:26,693814.0,0.0,0.0
11:28:26,693823.0,0.0,0.0
11:28:26,693853.0,0.0,0.0
11:28:26,693871.0,0.0,0.0
11:28:26,693816.0,0.0,0.0
11:28:26,693813.0,0.0,0.0
11:28:26,693751.0,0.0,0.0
11:28:26,693736.0,0.0,0.0
11:28:26,693754.0,0.0,0.0
11:28:26,693737.0,0.0,0.0
11:28:26,693736.0,0.0,0.0
11:28:26,693722.0,0.0,0.0
11:28:26,693722.0,0.0,0.0
11:28:26,693685.0,0.0,0.0
11:28:26,693660.0,0.0,0.0
11:28:26,693631.0,0.0,0.0
11:28:26,693586.0,0.0,0.0
11:28:26,693589.0,0.0,0.0
11:28:26,693532.0,0.0,0.0
11:28:26,693499.0,0.0,0.0
11:28:26,693468.0,0.0,0.0
11:28:26,693406.0,0.0,0.0
11:28:26,693384.0,0.0,0.0
11:28:26,693376.0,0.0,0.0
11:28:26,693348.0,0.0,0.0
11:28:26,693342.0,0.0,0.0
11:28:26,693257.0,0.0,0.0
11:28:26,693224.0,0.0,0.0
11:28:26,693184.0,0.0,0.0
11:28:26,693262.0,0.0,0.0
11:28:26,693478.0,0.0,0.0
11:28:26,693543.0,0.0,0.0
11:28:26,693559.0,0.0,0.0
11:28:26,693556.0,0.0,0.0
11:28:26,693581.0,0.0,0.0
11:28:26,693631.0,0.0,0.0
11:28:26,693661.0,0.0,0.0
11:28:26,693729.0,0.0,0.0
11:28:26,693760.0,0.0,0.0
11:28:26,693789.0,0.0,0.0
11:28:26,693897.0,0.0,0.0
11:28:26,693976.0,0.0,0.0
11:28:26,694067.0,0.0,0.0
11:28:26,694121.0,0.0,0.0
11:28:26,694174.0,0.0,0.0
11:28:26,694283.0,0.0,0.0
11:28:26,694335.0,0.0,0.0
11:28:26,694443.0,0.0,0.0
11:28:26,694500.0,0.0,0.0
11:28:26,694575.0,0.0,0.0
11:28:26,694660.0,0.0,0.0
11:28:26,694658.0,0.0,0.0
11:28:26,694715.0,0.0,0.0
11:28:26,694738.0,0.0,0.0
11:28:26,694780.0,0.0,0.0
11:28:26,694870.0,0.0,0.0
11:28:26,694931.0,0.0,0.0
11:28:26,695016.0,0.0,0.0
11:28:26,695083.0,0.0,0.0
11:28:26,695191.0,0.0,0.0
11:28:26,695308.0,0.0,0.0
11:28:26,695321.0,0.0,0.0
11:28:26,695413.0,0.0,0.0
11:28:26,695449.0,0.0,0.0
11:28:26,695488.0,0.0,0.0
11:28:26,695482.0,0.0,0.0
11:28:26,695468.0,0.0,0.0
11:28:26,695514.0,0.0,0.0
11:28:26,695456.0,0.0,0.0
11:28:26,695457.0,0.0,0.0
11:28:27,695478.0,0.0,0.0
11:28:27,695464.0,0.0,0.0
11:28:27,695492.0,0.0,0.0
11:28:27,695485.0,0.0,0.0
11:28:27,695514.0,0.0,0.0
11:28:27,695541.0,0.0,0.0
11:28:27,695522.0,0.0,0.0
11:28:27,695552.0,0.0,0.0
11:28:27,695542.0,0.0,0.0
11:28:27,695524.0,0.0,0.0
11:28:27,695532.0,0.0,0.0
11:28:27,695488.0,0.0,0.0
11:28:27,695496.0,0.0,0.0
11:28:27,695451.0,0.0,0.0
11:28:27,695440.0,0.0,0.0
11:28:27,695466.0,0.0,0.0
11:28:27,695416.0,0.0,0.0
11:28:27,695448.0,0.0,0.0
11:28:27,695449.0,0.0,0.0
11:28:27,695488.0,0.0,0.0
11:28:27,695505.0,0.0,0.0
11:28:27,695507.0,0.0,0.0
11:28:27,695522.0,0.0,0.0
11:28:27,695518.0,0.0,0.0
11:28:27,695533.0,0.0,0.0
11:28:27,695523.0,0.0,0.0
11:28:27,695478.0,0.0,0.0
11:28:27,695510.0,0.0,0.0
11:28:27,695480.0,0.0,0.0
11:28:27,695499.0,0.0,0.0
11:28:27,695531.0,0.0,0.0
11:28:27,695465.0,0.0,0.0
11:28:27,695480.0,0.0,0.0
11:28:27,695435.0,0.0,0.0
11:28:27,695432.0,0.0,0.0
11:28:27,695434.0,0.0,0.0
11:28:27,695398.0,0.0,0.0
11:28:27,695431.0,0.0,0.0
11:28:27,695335.0,0.0,0.0
11:28:27,695255.0,0.0,0.0
11:28:27,695191.0,0.0,0.0
11:28:27,695176.0,0.0,0.0
11:28:27,695338.0,0.0,0.0
11:28:27,695388.0,0.0,0.0
11:28:27,695318.0,0.0,0.0
11:28:27,695225.0,0.0,0.0
11:28:27,695096.0,0.0,0.0
11:28:27,695082.0,0.0,0.0
11:28:27,695029.0,0.0,0.0
11:28:27,694993.0,0.0,0.0
11:28:27,694959.0,0.0,0.0
11:28:27,694893.0,0.0,0.0
11:28:27,694929.0,0.0,0.0
11:28:27,694889.0,0.0,0.0
11:28:27,694890.0,0.0,0.0
11:28:27,694893.0,0.0,0.0
11:28:27,694869.0,0.0,0.0
11:28:27,694864.0,0.0,0.0
11:28:27,694822.0,0.0,0.0
11:28:27,694843.0,0.0,0.0
11:28:27,694872.0,0.0,0.0
11:28:27,694846.0,0.0,0.0
11:28:27,694892.0,0.0,0.0
11:28:27,694884.0,0.0,0.0
11:28:27,694960.0,0.0,0.0
11:28:27,694986.0,0.0,0.0
11:28:27,695011.0,0.0,0.0
11:28:27,695098.0,0.0,0.0
11:28:27,695086.0,0.0,0.0
11:28:27,695156.0,0.0,0.0
11:28:27,695181.0,0.0,0.0
11:28:27,695179.0,0.0,0.0
11:28:27,695239.0,0.0,0.0
11:28:27,695263.0,0.0,0.0
11:28:27,695283.0,0.0,0.0
11:28:27,695289.0,0.0,0.0
11:28:27,695297.0,0.0,0.0
11:28:27,695365.0,0.0,0.0
11:28:27,695368.0,0.0,0.0
11:28:27,695408.0,0.0,0.0
11:28:27,695410.0,0.0,0.0
11:28:27,695391.0,0.0,0.0
11:28:27,695429.0,0.0,0.0
11:28:27,695369.0,0.0,0.0
11:28:27,695404.0,0.0,0.0
11:28:27,695427.0,0.0,0.0
11:28:27,695403.0,0.0,0.0
11:28:27,695469.0,0.0,0.0
11:28:27,695491.0,0.0,0.0
11:28:27,695475.0,0.0,0.0
11:28:27,695461.0,0.0,0.0
11:28:27,695424.0,0.0,0.0
11:28:27,695416.0,0.0,0.0
11:28:27,695353.0,0.0,0.0
11:28:27,695342.0,0.0,0.0
11:28:27,695334.0,0.0,0.0
11:28:27,695261.0,0.0,0.0
11:28:27,695212.0,0.0,0.0
11:28:27,695151.0,0.0,0.0
11:28:27,695136.0,0.0,0.0
11:28:27,695049.0,0.0,0.0
11:28:27,695041.0,0.0,0.0
11:28:27,695069.0,0.0,0.0
11:28:27,695021.0,0.0,0.0
11:28:27,695008.0,0.0,0.0
11:28:27,694929.0,0.0,0.0
11:28:27,694887.0,0.0,0.0
11:28:27,694859.0,0.0,0.0
11:28:27,694796.0,0.0,0.0
11:28:27,694801.0,0.0,0.0
11:28:27,694769.0,0.0,0.0
11:28:27,694776.0,0.0,0.0
11:28:27,694808.0,0.0,0.0
11:28:27,694737.0,0.0,0.0
11:28:27,694661.0,0.0,0.0
11:28:27,694453.0,0.0,0.0
11:28:27,694286.0,0.0,0.0
11:28:27,694344.0,0.0,0.0
11:28:27,694428.0,0.0,0.0
11:28:27,694474.0,0.0,0.0
11:28:27,694585.0,0.0,0.0
11:28:27,694719.0,0.0,0.0
11:28:27,694768.0,0.0,0.0
11:28:27,694839.0,0.0,0.0
11:28:27,694947.0,0.0,0.0
11:28:28,694903.0,0.0,0.0
11:28:28,694845.0,0.0,0.0
11:28:28,694884.0,0.0,0.0
11:28:28,694871.0,0.0,0.0
11:28:28,694941.0,0.0,0.0
11:28:28,695001.0,0.0,0.0
11:28:28,695028.0,0.0,0.0
11:28:28,695095.0,0.0,0.0
11:28:28,695077.0,0.0,0.0
11:28:28,695100.0,0.0,0.0
11:28:28,695027.0,0.0,0.0
11:28:28,694992.0,0.0,0.0
11:28:28,695008.0,0.0,0.0
11:28:28,694974.0,0.0,0.0
11:28:28,694986.0,0.0,0.0
11:28:28,694934.0,0.0,0.0
11:28:28,694864.0,0.0,0.0
11:28:28,694864.0,0.0,0.0
11:28:28,694838.0,0.0,0.0
11:28:28,694854.0,0.0,0.0
11:28:28,694793.0,0.0,0.0
11:28:28,694733.0,0.0,0.0
11:28:28,694783.0,0.0,0.0
11:28:28,694724.0,0.0,0.0
11:28:28,694730.0,0.0,0.0
11:28:28,694741.0,0.0,0.0
11:28:28,694691.0,0.0,0.0
11:28:28,694700.0,0.0,0.0
11:28:28,694636.0,0.0,0.0
11:28:28,694595.0,0.0,0.0
11:28:28,694542.0,0.0,0.0
11:28:28,694514.0,0.0,0.0
11:28:28,694529.0,0.0,0.0
11:28:28,694478.0,0.0,0.0
11:28:28,694521.0,0.0,0.0
11:28:28,694538.0,0.0,0.0
11:28:28,694536.0,0.0,0.0
11:28:28,694563.0,0.0,0.0
11:28:28,694535.0,0.0,0.0
11:28:28,694551.0,0.0,0.0
11:28:28,694554.0,0.0,0.0
11:28:28,694533.0,0.0,0.0
11:28:28,694539.0,0.0,0.0
11:28:28,694496.0,0.0,0.0
11:28:28,694545.0,0.0,0.0
11:28:28,694546.0,0.0,0.0
11:28:28,694505.0,0.0,0.0
11:28:28,694564.0,0.0,0.0
11:28:28,694545.0,0.0,0.0
11:28:28,694558.0,0.0,0.0
11:28:28,694534.0,0.0,0.0
11:28:28,694496.0,0.0,0.0
11:28:28,694498.0,0.0,0.0
11:28:28,694460.0,0.0,0.0
11:28:28,694454.0,0.0,0.0
11:28:28,694432.0,0.0,0.0
11:28:28,694349.0,0.0,0.0
11:28:28,694318.0,0.0,0.0
11:28:28,694311.0,0.0,0.0
11:28:28,694304.0,0.0,0.0
11:28:28,694273.0,0.0,0.0
11:28:28,694224.0,0.0,0.0
11:28:28,694144.0,0.0,0.0
11:28:28,694070.0,0.0,0.0
11:28:28,694143.0,0.0,0.0
11:28:28,694154.0,0.0,0.0
11:28:28,694089.0,0.0,0.0
11:28:28,694106.0,0.0,0.0
11:28:28,694053.0,0.0,0.0
11:28:28,694071.0,0.0,0.0
11:28:28,694112.0,0.0,0.0
11:28:28,694098.0,0.0,0.0
11:28:28,694067.0,0.0,0.0
11:28:28,694001.0,0.0,0.0
11:28:28,693973.0,0.0,0.0
11:28:28,693872.0,0.0,0.0
11:28:28,693818.0,0.0,0.0
11:28:28,693799.0,0.0,0.0
11:28:28,693691.0,0.0,0.0
11:28:28,693630.0,0.0,0.0
11:28:28,693649.0,0.0,0.0
11:28:28,693804.0,0.0,0.0
11:28:28,693894.0,0.0,0.0
11:28:28,693773.0,0.0,0.0
11:28:28,693734.0,0.0,0.0
11:28:28,693640.0,0.0,0.0
11:28:28,693587.0,0.0,0.0
11:28:28,693563.0,0.0,0.0
11:28:28,693493.0,0.0,0.0
11:28:28,693485.0,0.0,0.0
11:28:28,693480.0,0.0,0.0
11:28:28,693413.0,0.0,0.0
11:28:28,693387.0,0.0,0.0
11:28:28,693316.0,0.0,0.0
11:28:28,693258.0,0.0,0.0
11:28:28,693239.0,0.0,0.0
11:28:28,693189.0,0.0,0.0
11:28:28,693196.0,0.0,0.0
11:28:28,693148.0,0.0,0.0
11:28:28,693139.0,0.0,0.0
11:28:28,693063.0,0.0,0.0
11:28:28,693038.0,0.0,0.0
11:28:28,692953.0,0.0,0.0
11:28:28,692814.0,0.0,0.0
11:28:28,692667.0,0.0,0.0
11:28:28,692534.0,0.0,0.0
11:28:28,692641.0,0.0,0.0
11:28:28,692573.0,0.0,0.0
11:28:28,692715.0,0.0,0.0
11:28:28,692753.0,0.0,0.0
11:28:28,692743.0,0.0,0.0
11:28:28,692855.0,0.0,0.0
11:28:28,692828.0,0.0,0.0
11:28:28,692925.0,0.0,0.0
11:28:28,692962.0,0.0,0.0
11:28:28,692942.0,0.0,0.0
11:28:28,693033.0,0.0,0.0
11:28:28,692959.0,0.0,0.0
11:28:28,692951.0,0.0,0.0
11:28:28,692940.0,0.0,0.0
11:28:28,692889.0,0.0,0.0
11:28:28,692928.0,0.0,0.0
11:28:28,692818.0,0.0,0.0
11:28:28,692886.0,0.0,0.0
11:28:28,692881.0,0.0,0.0
11:28:29,692883.0,0.0,0.0
11:28:29,692971.0,0.0,0.0
11:28:29,692904.0,0.0,0.0
11:28:29,692941.0,0.0,0.0
11:28:29,692963.0,0.0,0.0
11:28:29,692901.0,0.0,0.0
11:28:29,692954.0,0.0,0.0
11:28:29,692883.0,0.0,0.0
11:28:29,692867.0,0.0,0.0
11:28:29,692944.0,0.0,0.0
11:28:29,692888.0,0.0,0.0
11:28:29,692894.0,0.0,0.0
11:28:29,692900.0,0.0,0.0
11:28:29,692826.0,0.0,0.0
11:28:29,692849.0,0.0,0.0
11:28:29,692794.0,0.0,0.0
11:28:29,692818.0,0.0,0.0
11:28:29,692806.0,0.0,0.0
11:28:29,692803.0,0.0,0.0
11:28:29,692860.0,0.0,0.0
11:28:29,692850.0,0.0,0.0
11:28:29,692821.0,0.0,0.0
11:28:29,692816.0,0.0,0.0
11:28:29,692803.0,0.0,0.0
11:28:29,692865.0,0.0,0.0
11:28:29,692896.0,0.0,0.0
11:28:29,692938.0,0.0,0.0
11:28:29,692961.0,0.0,0.0
11:28:29,692933.0,0.0,0.0
11:28:29,692976.0,0.0,0.0
11:28:29,692984.0,0.0,0.0
11:28:29,692987.0,0.0,0.0
11:28:29,692990.0,0.0,0.0
11:28:29,692961.0,0.0,0.0
11:28:29,692996.0,0.0,0.0
11:28:29,692989.0,0.0,0.0
11:28:29,692944.0,0.0,0.0
11:28:29,692863.0,0.0,0.0
11:28:29,692771.0,0.0,0.0
11:28:29,692794.0,0.0,0.0
11:28:29,692917.0,0.0,0.0
11:28:29,693029.0,0.0,0.0
11:28:29,692956.0,0.0,0.0
11:28:29,692808.0,0.0,0.0
11:28:29,692771.0,0.0,0.0
11:28:29,692704.0,0.0,0.0
11:28:29,692684.0,0.0,0.0
11:28:29,692713.0,0.0,0.0
11:28:29,692671.0,0.0,0.0
11:28:29,692682.0,0.0,0.0
11:28:29,692636.0,0.0,0.0
11:28:29,692611.0,0.0,0.0
11:28:29,692625.0,0.0,0.0
11:28:29,692618.0,0.0,0.0
11:28:29,692602.0,0.0,0.0
11:28:29,692600.0,0.0,0.0
11:28:29,692612.0,0.0,0.0
11:28:29,692653.0,0.0,0.0
11:28:29,692601.0,0.0,0.0
11:28:29,692591.0,0.0,0.0
11:28:29,692601.0,0.0,0.0
11:28:29,692575.0,0.0,0.0
11:28:29,692553.0,0.0,0.0
11:28:29,692514.0,0.0,0.0
11:28:29,692542.0,0.0,0.0
11:28:29,692506.0,0.0,0.0
11:28:29,692473.0,0.0,0.0
11:28:29,692491.0,0.0,0.0
11:28:29,692421.0,0.0,0.0
11:28:29,692401.0,0.0,0.0
11:28:29,692356.0,0.0,0.0
11:28:29,692373.0,0.0,0.0
11:28:29,692405.0,0.0,0.0
11:28:29,692395.0,0.0,0.0
11:28:29,692466.0,0.0,0.0
11:28:29,692396.0,0.0,0.0
11:28:29,692388.0,0.0,0.0
11:28:29,692391.0,0.0,0.0
11:28:29,692364.0,0.0,0.0
11:28:29,692363.0,0.0,0.0
11:28:29,692364.0,0.0,0.0
11:28:29,692353.0,0.0,0.0
11:28:29,692346.0,0.0,0.0
11:28:29,692258.0,0.0,0.0
11:28:29,692274.0,0.0,0.0
11:28:29,692264.0,0.0,0.0
11:28:29,692269.0,0.0,0.0
11:28:29,692258.0,0.0,0.0
11:28:29,692213.0,0.0,0.0
11:28:29,692244.0,0.0,0.0
11:28:29,692235.0,0.0,0.0
11:28:29,692214.0,0.0,0.0
11:28:29,692246.0,0.0,0.0
11:28:29,692185.0,0.0,0.0
11:28:29,692191.0,0.0,0.0
11:28:29,692169.0,0.0,0.0
11:28:29,692177.0,0.0,0.0
11:28:29,692216.0,0.0,0.0
11:28:29,692190.0,0.0,0.0
11:28:29,692229.0,0.0,0.0
11:28:29,692180.0,0.0,0.0
11:28:29,692148.0,0.0,0.0
11:28:29,692187.0,0.0,0.0
11:28:29,692209.0,0.0,0.0
11:28:29,692274.0,0.0,0.0
11:28:29,692217.0,0.0,0.0
11:28:29,692178.0,0.0,0.0
11:28:29,692158.0,0.0,0.0
11:28:29,692150.0,0.0,0.0
11:28:29,692231.0,0.0,0.0
11:28:29,692181.0,0.0,0.0
11:28:29,692167.0,0.0,0.0
11:28:29,692154.0,0.0,0.0
11:28:29,692081.0,0.0,0.0
11:28:29,692099.0,0.0,0.0
11:28:29,692020.0,0.0,0.0
11:28:29,692011.0,0.0,0.0
11:28:29,691979.0,0.0,0.0
11:28:29,691898.0,0.0,0.0
11:28:29,691856.0,0.0,0.0
11:28:29,691702.0,0.0,0.0
11:28:29,691612.0,0.0,0.0
11:28:29,691586.0,0.0,0.0
11:28:29,691718.0,0.0,0.0
11:28:29,691875.0,0.0,0.0
11:28:30,691789.0,0.0,0.0
11:28:30,691768.0,0.0,0.0
11:28:30,691786.0,0.0,0.0
11:28:30,691774.0,0.0,0.0
11:28:30,691869.0,0.0,0.0
11:28:30,691898.0,0.0,0.0
11:28:30,691953.0,0.0,0.0
11:28:30,691981.0,0.0,0.0
11:28:30,691979.0,0.0,0.0
11:28:30,691993.0,0.0,0.0
11:28:30,691942.0,0.0,0.0
11:28:30,691928.0,0.0,0.0
11:28:30,691919.0,0.0,0.0
11:28:30,691879.0,0.0,0.0
11:28:30,691887.0,0.0,0.0
11:28:30,691816.0,0.0,0.0
11:28:30,691772.0,0.0,0.0
11:28:30,691783.0,0.0,0.0
11:28:30,691738.0,0.0,0.0
11:28:30,691781.0,0.0,0.0
11:28:30,691788.0,0.0,0.0
11:28:30,691871.0,0.0,0.0
11:28:30,691919.0,0.0,0.0
11:28:30,691936.0,0.0,0.0
11:28:30,691993.0,0.0,0.0
11:28:30,691944.0,0.0,0.0
11:28:30,691951.0,0.0,0.0
11:28:30,691956.0,0.0,0.0
11:28:30,691954.0,0.0,0.0
11:28:30,691980.0,0.0,0.0
11:28:30,692037.0,0.0,0.0
11:28:30,692136.0,0.0,0.0
11:28:30,692179.0,0.0,0.0
11:28:30,692134.0,0.0,0.0
11:28:30,692226.0,0.0,0.0
11:28:30,692234.0,0.0,0.0
11:28:30,692306.0,0.0,0.0
11:28:30,692396.0,0.0,0.0
11:28:30,692401.0,0.0,0.0
11:28:30,692491.0,0.0,0.0
11:28:30,692492.0,0.0,0.0
11:28:30,692531.0,0.0,0.0
11:28:30,692580.0,0.0,0.0
11:28:30,692579.0,0.0,0.0
11:28:30,692658.0,0.0,0.0
11:28:30,692636.0,0.0,0.0
11:28:30,692691.0,0.0,0.0
11:28:30,692762.0,0.0,0.0
11:28:30,692772.0,0.0,0.0
11:28:30,692869.0,0.0,0.0
11:28:30,692901.0,0.0,0.0
11:28:30,693002.0,0.0,0.0
11:28:30,693067.0,0.0,0.0
11:28:30,693116.0,0.0,0.0
11:28:30,693260.0,0.0,0.0
11:28:30,693285.0,0.0,0.0
11:28:30,693379.0,0.0,0.0
11:28:30,693469.0,0.0,0.0
11:28:30,693506.0,0.0,0.0
11:28:30,693677.0,0.0,0.0
11:28:30,693717.0,0.0,0.0
11:28:30,693784.0,0.0,0.0
11:28:30,693813.0,0.0,0.0
11:28:30,693809.0,0.0,0.0
11:28:30,693963.0,0.0,0.0
11:28:30,693986.0,0.0,0.0
11:28:30,694103.0,0.0,0.0
11:28:30,694160.0,0.0,0.0
11:28:30,694153.0,0.0,0.0
11:28:30,694279.0,0.0,0.0
11:28:30,694244.0,0.0,0.0
11:28:30,694413.0,0.0,0.0
11:28:30,694503.0,0.0,0.0
11:28:30,694586.0,0.0,0.0
11:28:30,694824.0,0.0,0.0
11:28:30,694801.0,0.0,0.0
11:28:30,694831.0,0.0,0.0
11:28:30,694823.0,0.0,0.0
11:28:30,694751.0,0.0,0.0
11:28:30,694782.0,0.0,0.0
11:28:30,694814.0,0.0,0.0
11:28:30,695021.0,0.0,0.0
11:28:30,695056.0,0.0,0.0
11:28:30,694939.0,0.0,0.0
11:28:30,694912.0,0.0,0.0
11:28:30,694821.0,0.0,0.0
11:28:30,694895.0,0.0,0.0
11:28:30,694897.0,0.0,0.0
11:28:30,694863.0,0.0,0.0
11:28:30,694954.0,0.0,0.0
11:28:30,694915.0,0.0,0.0
11:28:30,694979.0,0.0,0.0
11:28:30,695023.0,0.0,0.0
11:28:30,695119.0,0.0,0.0
11:28:30,695283.0,0.0,0.0
11:28:30,695327.0,0.0,0.0
11:28:30,695494.0,0.0,0.0
11:28:30,695606.0,0.0,0.0
11:28:30,695674.0,0.0,0.0
11:28:30,695765.0,0.0,0.0
11:28:30,695759.0,0.0,0.0
11:28:30,695829.0,0.0,0.0
11:28:30,695858.0,0.0,0.0
11:28:30,695894.0,0.0,0.0
11:28:30,695958.0,0.0,0.0
11:28:30,695881.0,0.0,0.0
11:28:30,695948.0,0.0,0.0
11:28:30,695948.0,0.0,0.0
11:28:30,695954.0,0.0,0.0
11:28:30,696063.0,0.0,0.0
11:28:30,696006.0,0.0,0.0
11:28:30,696089.0,0.0,0.0
11:28:30,696162.0,0.0,0.0
11:28:30,696203.0,0.0,0.0
11:28:30,696298.0,0.0,0.0
11:28:30,696193.0,0.0,0.0
11:28:30,696093.0,0.0,0.0
11:28:30,696036.0,0.0,0.0
11:28:30,696097.0,0.0,0.0
11:28:30,696191.0,0.0,0.0
11:28:30,696199.0,0.0,0.0
11:28:30,696332.0,0.0,0.0
11:28:30,696402.0,0.0,0.0
11:28:30,696433.0,0.0,0.0
11:28:30,696552.0,0.0,0.0
11:28:31,696583.0,0.0,0.0
11:28:31,696709.0,0.0,0.0
11:28:31,696758.0,0.0,0.0
11:28:31,696808.0,0.0,0.0
11:28:31,696934.0,0.0,0.0
11:28:31,696851.0,0.0,0.0
11:28:31,696850.0,0.0,0.0
11:28:31,696867.0,0.0,0.0
11:28:31,696868.0,0.0,0.0
11:28:31,696934.0,0.0,0.0
11:28:31,696889.0,0.0,0.0
11:28:31,696971.0,0.0,0.0
11:28:31,696959.0,0.0,0.0
11:28:31,696975.0,0.0,0.0
11:28:31,697117.0,0.0,0.0
11:28:31,697127.0,0.0,0.0
11:28:31,697194.0,0.0,0.0
11:28:31,697183.0,0.0,0.0
11:28:31,697143.0,0.0,0.0
11:28:31,697256.0,0.0,0.0
11:28:31,697229.0,0.0,0.0
11:28:31,697303.0,0.0,0.0
11:28:31,697314.0,0.0,0.0
11:28:31,697291.0,0.0,0.0
11:28:31,697376.0,0.0,0.0
11:28:31,697341.0,0.0,0.0
11:28:31,697417.0,0.0,0.0
11:28:31,697446.0,0.0,0.0
11:28:31,697466.0,0.0,0.0
11:28:31,697575.0,0.0,0.0
11:28:31,697546.0,0.0,0.0
11:28:31,697646.0,0.0,0.0
11:28:31,697657.0,0.0,0.0
11:28:31,697646.0,0.0,0.0
11:28:31,697670.0,0.0,0.0
11:28:31,697583.0,0.0,0.0
11:28:31,697576.0,0.0,0.0
11:28:31,697586.0,0.0,0.0
11:28:31,697699.0,0.0,0.0
11:28:31,697801.0,0.0,0.0
11:28:31,697681.0,0.0,0.0
11:28:31,697773.0,0.0,0.0
11:28:31,697824.0,0.0,0.0
11:28:31,697836.0,0.0,0.0
11:28:31,697885.0,0.0,0.0
11:28:31,697833.0,0.0,0.0
11:28:31,697923.0,0.0,0.0
11:28:31,697962.0,0.0,0.0
11:28:31,697949.0,0.0,0.0
11:28:31,698000.0,0.0,0.0
11:28:31,697986.0,0.0,0.0
11:28:31,698051.0,0.0,0.0
11:28:31,698037.0,0.0,0.0
11:28:31,698046.0,0.0,0.0
11:28:31,698088.0,0.0,0.0
11:28:31,698069.0,0.0,0.0
11:28:31,698118.0,0.0,0.0
11:28:31,698110.0,0.0,0.0
11:28:31,698077.0,0.0,0.0
11:28:31,698081.0,0.0,0.0
11:28:31,698044.0,0.0,0.0
11:28:31,698052.0,0.0,0.0
11:28:31,698015.0,0.0,0.0
11:28:31,698009.0,0.0,0.0
11:28:31,698015.0,0.0,0.0
11:28:31,697939.0,0.0,0.0
11:28:31,697951.0,0.0,0.0
11:28:31,697969.0,0.0,0.0
11:28:31,697936.0,0.0,0.0
11:28:31,698011.0,0.0,0.0
11:28:31,697989.0,0.0,0.0
11:28:31,698016.0,0.0,0.0
11:28:31,698023.0,0.0,0.0
11:28:31,698023.0,0.0,0.0
11:28:31,698067.0,0.0,0.0
11:28:31,698051.0,0.0,0.0
11:28:31,698083.0,0.0,0.0
11:28:31,698083.0,0.0,0.0
11:28:31,698099.0,0.0,0.0
11:28:31,698148.0,0.0,0.0
11:28:31,698147.0,0.0,0.0
11:28:31,698156.0,0.0,0.0
11:28:31,698135.0,0.0,0.0
11:28:31,698118.0,0.0,0.0
11:28:31,698139.0,0.0,0.0
11:28:31,698080.0,0.0,0.0
11:28:31,698081.0,0.0,0.0
11:28:31,698063.0,0.0,0.0
11:28:31,698033.0,0.0,0.0
11:28:31,698066.0,0.0,0.0
11:28:31,698005.0,0.0,0.0
11:28:31,697993.0,0.0,0.0
11:28:31,697958.0,0.0,0.0
11:28:31,697940.0,0.0,0.0
11:28:31,697931.0,0.0,0.0
11:28:31,697862.0,0.0,0.0
11:28:31,697941.0,0.0,0.0
11:28:31,697939.0,0.0,0.0
11:28:31,697931.0,0.0,0.0
11:28:31,697991.0,0.0,0.0
11:28:31,697939.0,0.0,0.0
11:28:31,698003.0,0.0,0.0
11:28:31,697996.0,0.0,0.0
11:28:31,697967.0,0.0,0.0
11:28:31,698032.0,0.0,0.0
11:28:31,697966.0,0.0,0.0
11:28:31,698003.0,0.0,0.0
11:28:31,698013.0,0.0,0.0
11:28:31,698038.0,0.0,0.0
11:28:31,698098.0,0.0,0.0
11:28:31,698018.0,0.0,0.0
11:28:31,698058.0,0.0,0.0
11:28:31,698078.0,0.0,0.0
11:28:31,698121.0,0.0,0.0
11:28:31,698202.0,0.0,0.0
11:28:31,698149.0,0.0,0.0
11:28:31,698146.0,0.0,0.0
11:28:31,698140.0,0.0,0.0
11:28:31,698259.0,0.0,0.0
11:28:31,698382.0,0.0,0.0
11:28:31,698236.0,0.0,0.0
11:28:31,698212.0,0.0,0.0
11:28:31,698151.0,0.0,0.0
11:28:31,698104.0,0.0,0.0
11:28:31,698151.0,0.0,0.0
11:28:32,698053.0,0.0,0.0
11:28:32,698111.0,0.0,0.0
11:28:32,698081.0,0.0,0.0
11:28:32,698060.0,0.0,0.0
11:28:32,698115.0,0.0,0.0
11:28:32,698034.0,0.0,0.0
11:28:32,698073.0,0.0,0.0
11:28:32,698025.0,0.0,0.0
11:28:32,698007.0,0.0,0.0
11:28:32,698043.0,0.0,0.0
11:28:32,697988.0,0.0,0.0
11:28:32,697999.0,0.0,0.0
11:28:32,697989.0,0.0,0.0
11:28:32,697984.0,0.0,0.0
11:28:32,698015.0,0.0,0.0
11:28:32,697971.0,0.0,0.0
11:28:32,698052.0,0.0,0.0
11:28:32,698048.0,0.0,0.0
11:28:32,698007.0,0.0,0.0
11:28:32,698026.0,0.0,0.0
11:28:32,697964.0,0.0,0.0
11:28:32,698039.0,0.0,0.0
11:28:32,698031.0,0.0,0.0
11:28:32,697997.0,0.0,0.0
11:28:32,698033.0,0.0,0.0
11:28:32,698033.0,0.0,0.0
11:28:32,698127.0,0.0,0.0
11:28:32,698123.0,0.0,0.0
11:28:32,698140.0,0.0,0.0
11:28:32,698197.0,0.0,0.0
11:28:32,698172.0,0.0,0.0
11:28:32,698210.0,0.0,0.0
11:28:32,698199.0,0.0,0.0
11:28:32,698194.0,0.0,0.0
11:28:32,698233.0,0.0,0.0
11:28:32,698185.0,0.0,0.0
11:28:32,698199.0,0.0,0.0
11:28:32,698199.0,0.0,0.0
11:28:32,698195.0,0.0,0.0
11:28:32,698235.0,0.0,0.0
11:28:32,698209.0,0.0,0.0
11:28:32,698214.0,0.0,0.0
11:28:32,698215.0,0.0,0.0
11:28:32,698236.0,0.0,0.0
11:28:32,698273.0,0.0,0.0
11:28:32,698220.0,0.0,0.0
11:28:32,698260.0,0.0,0.0
11:28:32,698241.0,0.0,0.0
11:28:32,698241.0,0.0,0.0
11:28:32,698241.0,0.0,0.0
11:28:32,698209.0,0.0,0.0
11:28:32,698251.0,0.0,0.0
11:28:32,698229.0,0.0,0.0
11:28:32,698233.0,0.0,0.0
11:28:32,698291.0,0.0,0.0
11:28:32,698239.0,0.0,0.0
11:28:32,698283.0,0.0,0.0
11:28:32,698280.0,0.0,0.0
11:28:32,698261.0,0.0,0.0
11:28:32,698296.0,0.0,0.0
11:28:32,698284.0,0.0,0.0
11:28:32,698332.0,0.0,0.0
11:28:32,698321.0,0.0,0.0
11:28:32,698304.0,0.0,0.0
11:28:32,698378.0,0.0,0.0
11:28:32,698346.0,0.0,0.0
11:28:32,698386.0,0.0,0.0
11:28:32,698378.0,0.0,0.0
11:28:32,698351.0,0.0,0.0
11:28:32,698333.0,0.0,0.0
11:28:32,698226.0,0.0,0.0
11:28:32,698174.0,0.0,0.0
11:28:32,698096.0,0.0,0.0
11:28:32,698184.0,0.0,0.0
11:28:32,698406.0,0.0,0.0
11:28:32,698424.0,0.0,0.0
11:28:32,698403.0,0.0,0.0
11:28:32,698327.0,0.0,0.0
11:28:32,698321.0,0.0,0.0
11:28:32,698336.0,0.0,0.0
11:28:32,698263.0,0.0,0.0
11:28:32,698309.0,0.0,0.0
11:28:32,698299.0,0.0,0.0
11:28:32,698316.0,0.0,0.0
11:28:32,698335.0,0.0,0.0
11:28:32,698289.0,0.0,0.0
11:28:32,698340.0,0.0,0.0
11:28:32,698318.0,0.0,0.0
11:28:32,698326.0,0.0,0.0
11:28:32,698341.0,0.0,0.0
11:28:32,698310.0,0.0,0.0
11:28:32,698361.0,0.0,0.0
11:28:32,698338.0,0.0,0.0
11:28:32,698338.0,0.0,0.0
11:28:32,698337.0,0.0,0.0
11:28:32,698242.0,0.0,0.0
11:28:32,698184.0,0.0,0.0
11:28:32,698122.0,0.0,0.0
11:28:32,698178.0,0.0,0.0
11:28:32,698242.0,0.0,0.0
11:28:32,698267.0,0.0,0.0
11:28:32,698374.0,0.0,0.0
11:28:32,698399.0,0.0,0.0
11:28:32,698441.0,0.0,0.0
11:28:32,698435.0,0.0,0.0
11:28:32,698403.0,0.0,0.0
11:28:32,698441.0,0.0,0.0
11:28:32,698391.0,0.0,0.0
11:28:32,698424.0,0.0,0.0
11:28:32,698438.0,0.0,0.0
11:28:32,698399.0,0.0,0.0
11:28:32,698428.0,0.0,0.0
11:28:32,698360.0,0.0,0.0
11:28:32,698388.0,0.0,0.0
11:28:32,698397.0,0.0,0.0
11:28:32,698333.0,0.0,0.0
11:28:32,698274.0,0.0,0.0
11:28:32,698244.0,0.0,0.0
11:28:32,698322.0,0.0,0.0
11:28:32,698371.0,0.0,0.0
11:28:32,698366.0,0.0,0.0
11:28:32,698345.0,0.0,0.0
11:28:32,698344.0,0.0,0.0
11:28:32,698365.0,0.0,0.0
11:28:32,698371.0,0.0,0.0
11:28:33,698348.0,0.0,0.0
11:28:33,698395.0,0.0,0.0
11:28:33,698384.0,0.0,0.0
11:28:33,698366.0,0.0,0.0
11:28:33,698354.0,0.0,0.0
11:28:33,698313.0,0.0,0.0
11:28:33,698328.0,0.0,0.0
11:28:33,698303.0,0.0,0.0
11:28:33,698312.0,0.0,0.0
11:28:33,698314.0,0.0,0.0
11:28:33,698308.0,0.0,0.0
11:28:33,698371.0,0.0,0.0
11:28:33,698343.0,0.0,0.0
11:28:33,698392.0,0.0,0.0
11:28:33,698439.0,0.0,0.0
11:28:33,698409.0,0.0,0.0
11:28:33,698440.0,0.0,0.0
11:28:33,698428.0,0.0,0.0
11:28:33,698451.0,0.0,0.0
11:28:33,698437.0,0.0,0.0
11:28:33,698397.0,0.0,0.0
11:28:33,698424.0,0.0,0.0
11:28:33,698378.0,0.0,0.0
11:28:33,698329.0,0.0,0.0
11:28:33,698303.0,0.0,0.0
11:28:33,698270.0,0.0,0.0
11:28:33,698280.0,0.0,0.0
11:28:33,698258.0,0.0,0.0
11:28:33,698267.0,0.0,0.0
11:28:33,698236.0,0.0,0.0
11:28:33,698155.0,0.0,0.0
11:28:33,698116.0,0.0,0.0
11:28:33,698216.0,0.0,0.0
11:28:33,698351.0,0.0,0.0
11:28:33,698324.0,0.0,0.0
11:28:33,698205.0,0.0,0.0
11:28:33,698204.0,0.0,0.0
11:28:33,698139.0,0.0,0.0
11:28:33,698150.0,0.0,0.0
11:28:33,698157.0,0.0,0.0
11:28:33,698084.0,0.0,0.0
11:28:33,698074.0,0.0,0.0
11:28:33,698034.0,0.0,0.0
11:28:33,698016.0,0.0,0.0
11:28:33,697987.0,0.0,0.0
11:28:33,697913.0,0.0,0.0
11:28:33,697880.0,0.0,0.0
11:28:33,697863.0,0.0,0.0
11:28:33,697849.0,0.0,0.0
11:28:33,697803.0,0.0,0.0
11:28:33,697753.0,0.0,0.0
11:28:33,697768.0,0.0,0.0
11:28:33,697731.0,0.0,0.0
11:28:33,697703.0,0.0,0.0
11:28:33,697675.0,0.0,0.0
11:28:33,697649.0,0.0,0.0
11:28:33,697644.0,0.0,0.0
11:28:33,697588.0,0.0,0.0
11:28:33,697601.0,0.0,0.0
11:28:33,697615.0,0.0,0.0
11:28:33,697624.0,0.0,0.0
11:28:33,697681.0,0.0,0.0
11:28:33,697619.0,0.0,0.0
11:28:33,697533.0,0.0,0.0
11:28:33,697472.0,0.0,0.0
11:28:33,697425.0,0.0,0.0
11:28:33,697436.0,0.0,0.0
11:28:33,697417.0,0.0,0.0
11:28:33,697420.0,0.0,0.0
11:28:33,697416.0,0.0,0.0
11:28:33,697361.0,0.0,0.0
11:28:33,697369.0,0.0,0.0
11:28:33,697335.0,0.0,0.0
11:28:33,697324.0,0.0,0.0
11:28:33,697316.0,0.0,0.0
11:28:33,697294.0,0.0,0.0
11:28:33,697298.0,0.0,0.0
11:28:33,697266.0,0.0,0.0
11:28:33,697281.0,0.0,0.0
11:28:33,697280.0,0.0,0.0
11:28:33,697227.0,0.0,0.0
11:28:33,697226.0,0.0,0.0
11:28:33,697153.0,0.0,0.0
11:28:33,697174.0,0.0,0.0
11:28:33,697157.0,0.0,0.0
11:28:33,697123.0,0.0,0.0
11:28:33,697133.0,0.0,0.0
11:28:33,697096.0,0.0,0.0
11:28:33,697095.0,0.0,0.0
11:28:33,697045.0,0.0,0.0
11:28:33,697019.0,0.0,0.0
11:28:33,697023.0,0.0,0.0
11:28:33,696966.0,0.0,0.0
11:28:33,697003.0,0.0,0.0
11:28:33,696989.0,0.0,0.0
11:28:33,696915.0,0.0,0.0
11:28:33,696963.0,0.0,0.0
11:28:33,696948.0,0.0,0.0
11:28:33,696989.0,0.0,0.0
11:28:33,696993.0,0.0,0.0
11:28:33,696944.0,0.0,0.0
11:28:33,696945.0,0.0,0.0
11:28:33,696904.0,0.0,0.0
11:28:33,696929.0,0.0,0.0
11:28:33,696886.0,0.0,0.0
11:28:33,696826.0,0.0,0.0
11:28:33,696835.0,0.0,0.0
11:28:33,696839.0,0.0,0.0
11:28:33,696853.0,0.0,0.0
11:28:33,696846.0,0.0,0.0
11:28:33,696826.0,0.0,0.0
11:28:33,696804.0,0.0,0.0
11:28:33,696746.0,0.0,0.0
11:28:33,696721.0,0.0,0.0
11:28:33,696701.0,0.0,0.0
11:28:33,696668.0,0.0,0.0
11:28:33,696656.0,0.0,0.0
11:28:33,696546.0,0.0,0.0
11:28:33,696478.0,0.0,0.0
11:28:33,696508.0,0.0,0.0
11:28:33,696661.0,0.0,0.0
11:28:33,696756.0,0.0,0.0
11:28:33,696668.0,0.0,0.0
11:28:33,696584.0,0.0,0.0
11:28:33,696533.0,0.0,0.0
11:28:34,696509.0,0.0,0.0
11:28:34,696478.0,0.0,0.0
11:28:34,696391.0,0.0,0.0
11:28:34,696364.0,0.0,0.0
11:28:34,696273.0,0.0,0.0
11:28:34,696203.0,0.0,0.0
11:28:34,696154.0,0.0,0.0
11:28:34,696046.0,0.0,0.0
11:28:34,696042.0,0.0,0.0
11:28:34,696006.0,0.0,0.0
11:28:34,695959.0,0.0,0.0
11:28:34,695939.0,0.0,0.0
11:28:34,695888.0,0.0,0.0
11:28:34,695848.0,0.0,0.0
11:28:34,695786.0,0.0,0.0
11:28:34,695716.0,0.0,0.0
11:28:34,695678.0,0.0,0.0
11:28:34,695591.0,0.0,0.0
11:28:34,695571.0,0.0,0.0
11:28:34,695524.0,0.0,0.0
11:28:34,695478.0,0.0,0.0
11:28:34,695477.0,0.0,0.0
11:28:34,695429.0,0.0,0.0
11:28:34,695420.0,0.0,0.0
11:28:34,695391.0,0.0,0.0
11:28:34,695333.0,0.0,0.0
11:28:34,695331.0,0.0,0.0
11:28:34,695261.0,0.0,0.0
11:28:34,695256.0,0.0,0.0
11:28:34,695206.0,0.0,0.0
11:28:34,695204.0,0.0,0.0
11:28:34,695226.0,0.0,0.0
11:28:34,695164.0,0.0,0.0
11:28:34,695160.0,0.0,0.0
11:28:34,695147.0,0.0,0.0
11:28:34,695115.0,0.0,0.0
11:28:34,695106.0,0.0,0.0
11:28:34,695093.0,0.0,0.0
11:28:34,695126.0,0.0,0.0
11:28:34,695084.0,0.0,0.0
11:28:34,695039.0,0.0,0.0
11:28:34,695006.0,0.0,0.0
11:28:34,694943.0,0.0,0.0
11:28:34,694932.0,0.0,0.0
11:28:34,694856.0,0.0,0.0
11:28:34,694828.0,0.0,0.0
11:28:34,694830.0,0.0,0.0
11:28:34,694798.0,0.0,0.0
11:28:34,694841.0,0.0,0.0
11:28:34,694809.0,0.0,0.0
11:28:34,694663.0,0.0,0.0
11:28:34,694629.0,0.0,0.0
11:28:34,694519.0,0.0,0.0
11:28:34,694501.0,0.0,0.0
11:28:34,694467.0,0.0,0.0
11:28:34,694405.0,0.0,0.0
11:28:34,694369.0,0.0,0.0
11:28:34,694260.0,0.0,0.0
11:28:34,694113.0,0.0,0.0
11:28:34,693979.0,0.0,0.0
11:28:34,694006.0,0.0,0.0
11:28:34,693896.0,0.0,0.0
11:28:34,693950.0,0.0,0.0
11:28:34,693980.0,0.0,0.0
11:28:34,693977.0,0.0,0.0
11:28:34,694069.0,0.0,0.0
11:28:34,693992.0,0.0,0.0
11:28:34,694049.0,0.0,0.0
11:28:34,694064.0,0.0,0.0
11:28:34,694017.0,0.0,0.0
11:28:34,694072.0,0.0,0.0
11:28:34,694036.0,0.0,0.0
11:28:34,694066.0,0.0,0.0
11:28:34,694033.0,0.0,0.0
11:28:34,693994.0,0.0,0.0
11:28:34,694038.0,0.0,0.0
11:28:34,693967.0,0.0,0.0
11:28:34,693987.0,0.0,0.0
11:28:34,693955.0,0.0,0.0
11:28:34,693923.0,0.0,0.0
11:28:34,693958.0,0.0,0.0
11:28:34,693847.0,0.0,0.0
11:28:34,693896.0,0.0,0.0
11:28:34,693832.0,0.0,0.0
11:28:34,693727.0,0.0,0.0
11:28:34,693714.0,0.0,0.0
11:28:34,693597.0,0.0,0.0
11:28:34,693634.0,0.0,0.0
11:28:34,693808.0,0.0,0.0
11:28:34,693883.0,0.0,0.0
11:28:34,693846.0,0.0,0.0
11:28:34,693710.0,0.0,0.0
11:28:34,693685.0,0.0,0.0
11:28:34,693676.0,0.0,0.0
11:28:34,693633.0,0.0,0.0
11:28:34,693660.0,0.0,0.0
11:28:34,693622.0,0.0,0.0
11:28:34,693641.0,0.0,0.0
11:28:34,693645.0,0.0,0.0
11:28:34,693535.0,0.0,0.0
11:28:34,693540.0,0.0,0.0
11:28:34,693470.0,0.0,0.0
11:28:34,693473.0,0.0,0.0
11:28:34,693456.0,0.0,0.0
11:28:34,693384.0,0.0,0.0
11:28:34,693409.0,0.0,0.0
11:28:34,693321.0,0.0,0.0
11:28:34,693301.0,0.0,0.0
11:28:34,693287.0,0.0,0.0
11:28:34,693250.0,0.0,0.0
11:28:34,693246.0,0.0,0.0
11:28:34,693204.0,0.0,0.0
11:28:34,693266.0,0.0,0.0
11:28:34,693256.0,0.0,0.0
11:28:34,693224.0,0.0,0.0
11:28:34,693286.0,0.0,0.0
11:28:34,693264.0,0.0,0.0
11:28:34,693360.0,0.0,0.0
11:28:34,693406.0,0.0,0.0
11:28:34,693365.0,0.0,0.0
11:28:34,693449.0,0.0,0.0
11:28:34,693432.0,0.0,0.0
11:28:34,693456.0,0.0,0.0
11:28:34,693478.0,0.0,0.0
11:28:34,693438.0,0.0,0.0
11:28:35,693454.0,0.0,0.0
11:28:35,693460.0,0.0,0.0
11:28:35,693461.0,0.0,0.0
11:28:35,693491.0,0.0,0.0
11:28:35,693444.0,0.0,0.0
11:28:35,693490.0,0.0,0.0
11:28:35,693466.0,0.0,0.0
11:28:35,693448.0,0.0,0.0
11:28:35,693478.0,0.0,0.0
11:28:35,693463.0,0.0,0.0
11:28:35,693466.0,0.0,0.0
11:28:35,693435.0,0.0,0.0
11:28:35,693396.0,0.0,0.0
11:28:35,693416.0,0.0,0.0
11:28:35,693399.0,0.0,0.0
11:28:35,693409.0,0.0,0.0
11:28:35,693424.0,0.0,0.0
11:28:35,693402.0,0.0,0.0
11:28:35,693461.0,0.0,0.0
11:28:35,693426.0,0.0,0.0
11:28:35,693411.0,0.0,0.0
11:28:35,693427.0,0.0,0.0
11:28:35,693428.0,0.0,0.0
11:28:35,693454.0,0.0,0.0
11:28:35,693461.0,0.0,0.0
11:28:35,693464.0,0.0,0.0
11:28:35,693499.0,0.0,0.0
11:28:35,693469.0,0.0,0.0
11:28:35,693491.0,0.0,0.0
11:28:35,693469.0,0.0,0.0
11:28:35,693459.0,0.0,0.0
11:28:35,693469.0,0.0,0.0
11:28:35,693411.0,0.0,0.0
11:28:35,693402.0,0.0,0.0
11:28:35,693396.0,0.0,0.0
11:28:35,693398.0,0.0,0.0
11:28:35,693395.0,0.0,0.0
11:28:35,693384.0,0.0,0.0
11:28:35,693411.0,0.0,0.0
11:28:35,693378.0,0.0,0.0
11:28:35,693310.0,0.0,0.0
11:28:35,693267.0,0.0,0.0
11:28:35,693237.0,0.0,0.0
11:28:35,693239.0,0.0,0.0
11:28:35,693224.0,0.0,0.0
11:28:35,693280.0,0.0,0.0
11:28:35,693270.0,0.0,0.0
11:28:35,693277.0,0.0,0.0
11:28:35,693291.0,0.0,0.0
11:28:35,693188.0,0.0,0.0
11:28:35,693200.0,0.0,0.0
11:28:35,693229.0,0.0,0.0
11:28:35,693260.0,0.0,0.0
11:28:35,693294.0,0.0,0.0
11:28:35,693249.0,0.0,0.0
11:28:35,693276.0,0.0,0.0
11:28:35,693286.0,0.0,0.0
11:28:35,693186.0,0.0,0.0
11:28:35,693141.0,0.0,0.0
11:28:35,693096.0,0.0,0.0
11:28:35,693254.0,0.0,0.0
11:28:35,693388.0,0.0,0.0
11:28:35,693353.0,0.0,0.0
11:28:35,693308.0,0.0,0.0
11:28:35,693235.0,0.0,0.0
11:28:35,693226.0,0.0,0.0
11:28:35,693251.0,0.0,0.0
11:28:35,693244.0,0.0,0.0
11:28:35,693296.0,0.0,0.0
11:28:35,693291.0,0.0,0.0
11:28:35,693316.0,0.0,0.0
11:28:35,693303.0,0.0,0.0
11:28:35,693258.0,0.0,0.0
11:28:35,693271.0,0.0,0.0
11:28:35,693239.0,0.0,0.0
11:28:35,693253.0,0.0,0.0
11:28:35,693287.0,0.0,0.0
11:28:35,693264.0,0.0,0.0
11:28:35,693282.0,0.0,0.0
11:28:35,693256.0,0.0,0.0
11:28:35,693275.0,0.0,0.0
11:28:35,693276.0,0.0,0.0
11:28:35,693253.0,0.0,0.0
11:28:35,693294.0,0.0,0.0
11:28:35,693308.0,0.0,0.0
11:28:35,693311.0,0.0,0.0
11:28:35,693316.0,0.0,0.0
11:28:35,693314.0,0.0,0.0
11:28:35,693343.0,0.0,0.0
11:28:35,693326.0,0.0,0.0
11:28:35,693378.0,0.0,0.0
11:28:35,693420.0,0.0,0.0
11:28:35,693454.0,0.0,0.0
11:28:35,693495.0,0.0,0.0
11:28:35,693472.0,0.0,0.0
11:28:35,693511.0,0.0,0.0
11:28:35,693523.0,0.0,0.0
11:28:35,693511.0,0.0,0.0
11:28:35,693585.0,0.0,0.0
11:28:35,693552.0,0.0,0.0
11:28:35,693574.0,0.0,0.0
11:28:35,693644.0,0.0,0.0
11:28:35,693604.0,0.0,0.0
11:28:35,693631.0,0.0,0.0
11:28:35,693609.0,0.0,0.0
11:28:35,693606.0,0.0,0.0
11:28:35,693610.0,0.0,0.0
11:28:35,693609.0,0.0,0.0
11:28:35,693653.0,0.0,0.0
11:28:35,693661.0,0.0,0.0
11:28:35,693696.0,0.0,0.0
11:28:35,693749.0,0.0,0.0
11:28:35,693747.0,0.0,0.0
11:28:35,693771.0,0.0,0.0
11:28:35,693773.0,0.0,0.0
11:28:35,693821.0,0.0,0.0
11:28:35,693836.0,0.0,0.0
11:28:35,693793.0,0.0,0.0
11:28:35,693861.0,0.0,0.0
11:28:35,693874.0,0.0,0.0
11:28:35,693839.0,0.0,0.0
11:28:35,693878.0,0.0,0.0
11:28:35,693875.0,0.0,0.0
11:28:35,693912.0,0.0,0.0
11:28:35,693862.0,0.0,0.0
11:28:36,693850.0,0.0,0.0
11:28:36,693904.0,0.0,0.0
11:28:36,693951.0,0.0,0.0
11:28:36,694025.0,0.0,0.0
11:28:36,694012.0,0.0,0.0
11:28:36,694063.0,0.0,0.0
11:28:36,694149.0,0.0,0.0
11:28:36,694123.0,0.0,0.0
11:28:36,694155.0,0.0,0.0
11:28:36,694178.0,0.0,0.0
11:28:36,694213.0,0.0,0.0
11:28:36,694249.0,0.0,0.0
11:28:36,694243.0,0.0,0.0
11:28:36,694303.0,0.0,0.0
11:28:36,694304.0,0.0,0.0
11:28:36,694322.0,0.0,0.0
11:28:36,694391.0,0.0,0.0
11:28:36,694381.0,0.0,0.0
11:28:36,694411.0,0.0,0.0
11:28:36,694433.0,0.0,0.0
11:28:36,694494.0,0.0,0.0
11:28:36,694532.0,0.0,0.0
11:28:36,694514.0,0.0,0.0
11:28:36,694574.0,0.0,0.0
11:28:36,694604.0,0.0,0.0
11:28:36,694635.0,0.0,0.0
11:28:36,694693.0,0.0,0.0
11:28:36,694706.0,0.0,0.0
11:28:36,694749.0,0.0,0.0
11:28:36,694783.0,0.0,0.0
11:28:36,694810.0,0.0,0.0
11:28:36,694818.0,0.0,0.0
11:28:36,694745.0,0.0,0.0
11:28:36,694780.0,0.0,0.0
11:28:36,694957.0,0.0,0.0
11:28:36,695115.0,0.0,0.0
11:28:36,695128.0,0.0,0.0
11:28:36,695064.0,0.0,0.0
11:28:36,695080.0,0.0,0.0
11:28:36,695061.0,0.0,0.0
11:28:36,695094.0,0.0,0.0
11:28:36,695140.0,0.0,0.0
11:28:36,695131.0,0.0,0.0
11:28:36,695165.0,0.0,0.0
11:28:36,695124.0,0.0,0.0
11:28:36,695098.0,0.0,0.0
11:28:36,695134.0,0.0,0.0
11:28:36,695108.0,0.0,0.0
11:28:36,695147.0,0.0,0.0
11:28:36,695158.0,0.0,0.0
11:28:36,695154.0,0.0,0.0
11:28:36,695194.0,0.0,0.0
11:28:36,695162.0,0.0,0.0
11:28:36,695166.0,0.0,0.0
11:28:36,695149.0,0.0,0.0
11:28:36,695206.0,0.0,0.0
11:28:36,695281.0,0.0,0.0
11:28:36,695257.0,0.0,0.0
11:28:36,695282.0,0.0,0.0
11:28:36,695323.0,0.0,0.0
11:28:36,695396.0,0.0,0.0
11:28:36,695428.0,0.0,0.0
11:28:36,695415.0,0.0,0.0
11:28:36,695489.0,0.0,0.0
11:28:36,695546.0,0.0,0.0
11:28:36,695611.0,0.0,0.0
11:28:36,695664.0,0.0,0.0
11:28:36,695661.0,0.0,0.0
11:28:36,695730.0,0.0,0.0
11:28:36,695731.0,0.0,0.0
11:28:36,695799.0,0.0,0.0
11:28:36,695829.0,0.0,0.0
11:28:36,695851.0,0.0,0.0
11:28:36,695919.0,0.0,0.0
11:28:36,695911.0,0.0,0.0
11:28:36,695943.0,0.0,0.0
11:28:36,695969.0,0.0,0.0
11:28:36,695979.0,0.0,0.0
11:28:36,696011.0,0.0,0.0
11:28:36,695963.0,0.0,0.0
11:28:36,695984.0,0.0,0.0
11:28:36,696026.0,0.0,0.0
11:28:36,696020.0,0.0,0.0
11:28:36,696063.0,0.0,0.0
11:28:36,696034.0,0.0,0.0
11:28:36,696051.0,0.0,0.0
11:28:36,696104.0,0.0,0.0
11:28:36,696054.0,0.0,0.0
11:28:36,696099.0,0.0,0.0
11:28:36,696104.0,0.0,0.0
11:28:36,696098.0,0.0,0.0
11:28:36,696110.0,0.0,0.0
11:28:36,696104.0,0.0,0.0
11:28:36,696144.0,0.0,0.0
11:28:36,696124.0,0.0,0.0
11:28:36,696131.0,0.0,0.0
11:28:36,696164.0,0.0,0.0
11:28:36,696151.0,0.0,0.0
11:28:36,696194.0,0.0,0.0
11:28:36,696188.0,0.0,0.0
11:28:36,696209.0,0.0,0.0
11:28:36,696228.0,0.0,0.0
11:28:36,696211.0,0.0,0.0
11:28:36,696249.0,0.0,0.0
11:28:36,696221.0,0.0,0.0
11:28:36,696235.0,0.0,0.0
11:28:36,696241.0,0.0,0.0
11:28:36,696227.0,0.0,0.0
11:28:36,696249.0,0.0,0.0
11:28:36,696298.0,0.0,0.0
11:28:36,696353.0,0.0,0.0
11:28:36,696424.0,0.0,0.0
11:28:36,696429.0,0.0,0.0
11:28:36,696478.0,0.0,0.0
11:28:36,696459.0,0.0,0.0
11:28:36,696491.0,0.0,0.0
11:28:36,696493.0,0.0,0.0
11:28:36,696508.0,0.0,0.0
11:28:36,696565.0,0.0,0.0
11:28:36,696554.0,0.0,0.0
11:28:36,696603.0,0.0,0.0
11:28:36,696623.0,0.0,0.0
11:28:36,696609.0,0.0,0.0
11:28:36,696666.0,0.0,0.0
11:28:36,696634.0,0.0,0.0
11:28:37,696677.0,0.0,0.0
11:28:37,696681.0,0.0,0.0
11:28:37,696609.0,0.0,0.0
11:28:37,696609.0,0.0,0.0
11:28:37,696567.0,0.0,0.0
11:28:37,696699.0,0.0,0.0
11:28:37,696819.0,0.0,0.0
11:28:37,696773.0,0.0,0.0
11:28:37,696776.0,0.0,0.0
11:28:37,696698.0,0.0,0.0
11:28:37,696688.0,0.0,0.0
11:28:37,696672.0,0.0,0.0
11:28:37,696613.0,0.0,0.0
11:28:37,696632.0,0.0,0.0
11:28:37,696593.0,0.0,0.0
11:28:37,696575.0,0.0,0.0
11:28:37,696555.0,0.0,0.0
11:28:37,696508.0,0.0,0.0
11:28:37,696527.0,0.0,0.0
11:28:37,696466.0,0.0,0.0
11:28:37,696453.0,0.0,0.0
11:28:37,696406.0,0.0,0.0
11:28:37,696343.0,0.0,0.0
11:28:37,696324.0,0.0,0.0
11:28:37,696269.0,0.0,0.0
11:28:37,696238.0,0.0,0.0
11:28:37,696184.0,0.0,0.0
11:28:37,696114.0,0.0,0.0
11:28:37,696131.0,0.0,0.0
11:28:37,696059.0,0.0,0.0
11:28:37,696039.0,0.0,0.0
11:28:37,695977.0,0.0,0.0
11:28:37,695898.0,0.0,0.0
11:28:37,695884.0,0.0,0.0
11:28:37,695856.0,0.0,0.0
11:28:37,695889.0,0.0,0.0
11:28:37,695859.0,0.0,0.0
11:28:37,695819.0,0.0,0.0
11:28:37,695797.0,0.0,0.0
11:28:37,695744.0,0.0,0.0
11:28:37,695732.0,0.0,0.0
11:28:37,695728.0,0.0,0.0
11:28:37,695741.0,0.0,0.0
11:28:37,695903.0,0.0,0.0
11:28:37,696100.0,0.0,0.0
11:28:37,696271.0,0.0,0.0
11:28:37,696341.0,0.0,0.0
11:28:37,696368.0,0.0,0.0
11:28:37,696410.0,0.0,0.0
11:28:37,696316.0,0.0,0.0
11:28:37,696293.0,0.0,0.0
11:28:37,696266.0,0.0,0.0
11:28:37,696223.0,0.0,0.0
11:28:37,696247.0,0.0,0.0
11:28:37,696124.0,0.0,0.0
11:28:37,696068.0,0.0,0.0
11:28:37,696016.0,0.0,0.0
11:28:37,696008.0,0.0,0.0
11:28:37,696015.0,0.0,0.0
11:28:37,695950.0,0.0,0.0
11:28:37,695984.0,0.0,0.0
11:28:37,695983.0,0.0,0.0
11:28:37,695959.0,0.0,0.0
11:28:37,696017.0,0.0,0.0
11:28:37,695990.0,0.0,0.0
11:28:37,696019.0,0.0,0.0
11:28:37,696045.0,0.0,0.0
11:28:37,696053.0,0.0,0.0
11:28:37,696099.0,0.0,0.0
11:28:37,696077.0,0.0,0.0
11:28:37,696095.0,0.0,0.0
11:28:37,696124.0,0.0,0.0
11:28:37,696141.0,0.0,0.0
11:28:37,696210.0,0.0,0.0
11:28:37,696172.0,0.0,0.0
11:28:37,696201.0,0.0,0.0
11:28:37,696223.0,0.0,0.0
11:28:37,696218.0,0.0,0.0
11:28:37,696260.0,0.0,0.0
11:28:37,696263.0,0.0,0.0
11:28:37,696299.0,0.0,0.0
11:28:37,696378.0,0.0,0.0
11:28:37,696396.0,0.0,0.0
11:28:37,696448.0,0.0,0.0
11:28:37,696431.0,0.0,0.0
11:28:37,696522.0,0.0,0.0
11:28:37,696544.0,0.0,0.0
11:28:37,696569.0,0.0,0.0
11:28:37,696594.0,0.0,0.0
11:28:37,696563.0,0.0,0.0
11:28:37,696609.0,0.0,0.0
11:28:37,696631.0,0.0,0.0
11:28:37,696625.0,0.0,0.0
11:28:37,696666.0,0.0,0.0
11:28:37,696635.0,0.0,0.0
11:28:37,696619.0,0.0,0.0
11:28:37,696532.0,0.0,0.0
11:28:37,696499.0,0.0,0.0
11:28:37,696693.0,0.0,0.0
11:28:37,696818.0,0.0,0.0
11:28:37,696824.0,0.0,0.0
11:28:37,696634.0,0.0,0.0
11:28:37,696567.0,0.0,0.0
11:28:37,696679.0,0.0,0.0
11:28:37,696656.0,0.0,0.0
11:28:37,696692.0,0.0,0.0
11:28:37,696734.0,0.0,0.0
11:28:37,696821.0,0.0,0.0
11:28:37,696897.0,0.0,0.0
11:28:37,696888.0,0.0,0.0
11:28:37,696993.0,0.0,0.0
11:28:37,697093.0,0.0,0.0
11:28:37,697149.0,0.0,0.0
11:28:37,697279.0,0.0,0.0
11:28:37,697345.0,0.0,0.0
11:28:37,697436.0,0.0,0.0
11:28:37,697490.0,0.0,0.0
11:28:37,697556.0,0.0,0.0
11:28:37,697653.0,0.0,0.0
11:28:37,697645.0,0.0,0.0
11:28:37,697744.0,0.0,0.0
11:28:37,697764.0,0.0,0.0
11:28:37,697811.0,0.0,0.0
11:28:37,697926.0,0.0,0.0
11:28:37,697958.0,0.0,0.0
11:28:38,698023.0,0.0,0.0
11:28:38,697988.0,0.0,0.0
11:28:38,697963.0,0.0,0.0
11:28:38,697961.0,0.0,0.0
11:28:38,697924.0,0.0,0.0
11:28:38,697975.0,0.0,0.0
11:28:38,697907.0,0.0,0.0
11:28:38,697891.0,0.0,0.0
11:28:38,698054.0,0.0,0.0
11:28:38,698075.0,0.0,0.0
11:28:38,697888.0,0.0,0.0
11:28:38,697537.0,0.0,0.0
11:28:38,698017.0,0.0,0.0
11:28:38,698564.0,0.0,0.0
11:28:38,698593.0,0.0,0.0
11:28:38,698713.0,0.0,0.0
11:28:38,698545.0,0.0,0.0
11:28:38,698521.0,0.0,0.0
11:28:38,698634.0,0.0,0.0
11:28:38,698678.0,0.0,0.0
11:28:38,698942.0,0.0,0.0
11:28:38,698994.0,0.0,0.0
11:28:38,698670.0,0.0,0.0
11:28:38,698341.0,0.0,0.0
11:28:38,698154.0,0.0,0.0
11:28:38,698126.0,0.0,0.0
11:28:38,698084.0,0.0,0.0
11:28:38,698210.0,0.0,0.0
11:28:38,698396.0,0.0,0.0
11:28:38,698588.0,0.0,0.0
11:28:38,698724.0,0.0,0.0
11:28:38,698786.0,0.0,0.0
11:28:38,698840.0,0.0,0.0
11:28:38,698824.0,0.0,0.0
11:28:38,698698.0,0.0,0.0
11:28:38,698703.0,0.0,0.0
11:28:38,698864.0,0.0,0.0
11:28:38,699194.0,0.0,0.0
11:28:38,698748.0,0.0,0.0
11:28:38,698416.0,0.0,0.0
11:28:38,698588.0,0.0,0.0
11:28:38,698566.0,0.0,0.0
11:28:38,698519.0,0.0,0.0
11:28:38,698535.0,0.0,0.0
11:28:38,698425.0,0.0,0.0
11:28:38,698464.0,0.0,0.0
11:28:38,698448.0,0.0,0.0
11:28:38,698308.0,0.0,0.0
11:28:38,698256.0,0.0,0.0
11:28:38,698200.0,0.0,0.0
11:28:38,698224.0,0.0,0.0
11:28:38,698201.0,0.0,0.0
11:28:38,698148.0,0.0,0.0
11:28:38,698088.0,0.0,0.0
11:28:38,697929.0,0.0,0.0
11:28:38,697881.0,0.0,0.0
11:28:38,697649.0,0.0,0.0
11:28:38,697523.0,0.0,0.0
11:28:38,697419.0,0.0,0.0
11:28:38,697273.0,0.0,0.0
11:28:38,697299.0,0.0,0.0
11:28:38,697231.0,0.0,0.0
11:28:38,697128.0,0.0,0.0
11:28:38,697038.0,0.0,0.0
11:28:38,696879.0,0.0,0.0
11:28:38,696929.0,0.0,0.0
11:28:38,696989.0,0.0,0.0
11:28:38,697041.0,0.0,0.0
11:28:38,696999.0,0.0,0.0
11:28:38,696853.0,0.0,0.0
11:28:38,696845.0,0.0,0.0
11:28:38,696723.0,0.0,0.0
11:28:38,696857.0,0.0,0.0
11:28:38,697004.0,0.0,0.0
11:28:38,697016.0,0.0,0.0
11:28:38,697161.0,0.0,0.0
11:28:38,697104.0,0.0,0.0
11:28:38,697109.0,0.0,0.0
11:28:38,697181.0,0.0,0.0
11:28:38,697102.0,0.0,0.0
11:28:38,697211.0,0.0,0.0
11:28:38,697223.0,0.0,0.0
11:28:38,697274.0,0.0,0.0
11:28:38,697284.0,0.0,0.0
11:28:38,697263.0,0.0,0.0
11:28:38,697316.0,0.0,0.0
11:28:38,697194.0,0.0,0.0
11:28:38,697202.0,0.0,0.0
11:28:38,697216.0,0.0,0.0
11:28:38,697039.0,0.0,0.0
11:28:38,697248.0,0.0,0.0
11:28:38,697284.0,0.0,0.0
11:28:38,697299.0,0.0,0.0
11:28:38,697357.0,0.0,0.0
11:28:38,697263.0,0.0,0.0
11:28:38,697348.0,0.0,0.0
11:28:38,697326.0,0.0,0.0
11:28:38,697442.0,0.0,0.0
11:28:38,697549.0,0.0,0.0
11:28:38,697467.0,0.0,0.0
11:28:38,697597.0,0.0,0.0
11:28:38,697563.0,0.0,0.0
11:28:38,697603.0,0.0,0.0
11:28:38,697783.0,0.0,0.0
11:28:38,697788.0,0.0,0.0
11:28:38,697868.0,0.0,0.0
11:28:38,697820.0,0.0,0.0
11:28:38,697793.0,0.0,0.0
11:28:38,697803.0,0.0,0.0
11:28:38,697703.0,0.0,0.0
11:28:38,697818.0,0.0,0.0
11:28:38,697810.0,0.0,0.0
11:28:38,697821.0,0.0,0.0
11:28:38,697887.0,0.0,0.0
11:28:38,697771.0,0.0,0.0
11:28:38,697749.0,0.0,0.0
11:28:38,697726.0,0.0,0.0
11:28:38,697819.0,0.0,0.0
11:28:38,697921.0,0.0,0.0
11:28:38,697969.0,0.0,0.0
11:28:38,698070.0,0.0,0.0
11:28:38,698063.0,0.0,0.0
11:28:38,698090.0,0.0,0.0
11:28:38,698139.0,0.0,0.0
11:28:39,698134.0,0.0,0.0
11:28:39,698159.0,0.0,0.0
11:28:39,698111.0,0.0,0.0
11:28:39,698128.0,0.0,0.0
11:28:39,698189.0,0.0,0.0
11:28:39,698194.0,0.0,0.0
11:28:39,698307.0,0.0,0.0
11:28:39,698304.0,0.0,0.0
11:28:39,698275.0,0.0,0.0
11:28:39,698276.0,0.0,0.0
11:28:39,698219.0,0.0,0.0
11:28:39,698271.0,0.0,0.0
11:28:39,698237.0,0.0,0.0
11:28:39,698171.0,0.0,0.0
11:28:39,698180.0,0.0,0.0
11:28:39,698160.0,0.0,0.0
11:28:39,698217.0,0.0,0.0
11:28:39,698126.0,0.0,0.0
11:28:39,698097.0,0.0,0.0
11:28:39,698094.0,0.0,0.0
11:28:39,697998.0,0.0,0.0
11:28:39,698088.0,0.0,0.0
11:28:39,698094.0,0.0,0.0
11:28:39,698119.0,0.0,0.0
11:28:39,698179.0,0.0,0.0
11:28:39,698147.0,0.0,0.0
11:28:39,698261.0,0.0,0.0
11:28:39,698251.0,0.0,0.0
11:28:39,698218.0,0.0,0.0
11:28:39,698212.0,0.0,0.0
11:28:39,698109.0,0.0,0.0
11:28:39,698149.0,0.0,0.0
11:28:39,698066.0,0.0,0.0
11:28:39,698004.0,0.0,0.0
11:28:39,697992.0,0.0,0.0
11:28:39,698050.0,0.0,0.0
11:28:39,698279.0,0.0,0.0
11:28:39,698261.0,0.0,0.0
11:28:39,698207.0,0.0,0.0
11:28:39,698226.0,0.0,0.0
11:28:39,698161.0,0.0,0.0
11:28:39,698279.0,0.0,0.0
11:28:39,698222.0,0.0,0.0
11:28:39,698195.0,0.0,0.0
11:28:39,698186.0,0.0,0.0
11:28:39,698133.0,0.0,0.0
11:28:39,698204.0,0.0,0.0
11:28:39,698153.0,0.0,0.0
11:28:39,698119.0,0.0,0.0
11:28:39,698125.0,0.0,0.0
11:28:39,698024.0,0.0,0.0
11:28:39,698110.0,0.0,0.0
11:28:39,698068.0,0.0,0.0
11:28:39,698058.0,0.0,0.0
11:28:39,698070.0,0.0,0.0
11:28:39,697963.0,0.0,0.0
11:28:39,698032.0,0.0,0.0
11:28:39,697941.0,0.0,0.0
11:28:39,697951.0,0.0,0.0
11:28:39,697988.0,0.0,0.0
11:28:39,697911.0,0.0,0.0
11:28:39,698036.0,0.0,0.0
11:28:39,697994.0,0.0,0.0
11:28:39,698028.0,0.0,0.0
11:28:39,698049.0,0.0,0.0
11:28:39,698015.0,0.0,0.0
11:28:39,698142.0,0.0,0.0
11:28:39,698097.0,0.0,0.0
11:28:39,698099.0,0.0,0.0
11:28:39,698133.0,0.0,0.0
11:28:39,698097.0,0.0,0.0
11:28:39,698209.0,0.0,0.0
11:28:39,698138.0,0.0,0.0
11:28:39,698143.0,0.0,0.0
11:28:39,698204.0,0.0,0.0
11:28:39,698175.0,0.0,0.0
11:28:39,698244.0,0.0,0.0
11:28:39,698158.0,0.0,0.0
11:28:39,698175.0,0.0,0.0
11:28:39,698167.0,0.0,0.0
11:28:39,698052.0,0.0,0.0
11:28:39,698112.0,0.0,0.0
11:28:39,698024.0,0.0,0.0
11:28:39,698045.0,0.0,0.0
11:28:39,698067.0,0.0,0.0
11:28:39,697961.0,0.0,0.0
11:28:39,698008.0,0.0,0.0
11:28:39,697913.0,0.0,0.0
11:28:39,697845.0,0.0,0.0
11:28:39,697816.0,0.0,0.0
11:28:39,697736.0,0.0,0.0
11:28:39,697754.0,0.0,0.0
11:28:39,697599.0,0.0,0.0
11:28:39,697591.0,0.0,0.0
11:28:39,697571.0,0.0,0.0
11:28:39,697462.0,0.0,0.0
11:28:39,697474.0,0.0,0.0
11:28:39,697363.0,0.0,0.0
11:28:39,697381.0,0.0,0.0
11:28:39,697379.0,0.0,0.0
11:28:39,697259.0,0.0,0.0
11:28:39,697310.0,0.0,0.0
11:28:39,697211.0,0.0,0.0
11:28:39,697186.0,0.0,0.0
11:28:39,697218.0,0.0,0.0
11:28:39,697148.0,0.0,0.0
11:28:39,697184.0,0.0,0.0
11:28:39,697117.0,0.0,0.0
11:28:39,697086.0,0.0,0.0
11:28:39,697121.0,0.0,0.0
11:28:39,697039.0,0.0,0.0
11:28:39,697103.0,0.0,0.0
11:28:39,697053.0,0.0,0.0
11:28:39,697060.0,0.0,0.0
11:28:39,697063.0,0.0,0.0
11:28:39,697010.0,0.0,0.0
11:28:39,697011.0,0.0,0.0
11:28:39,696938.0,0.0,0.0
11:28:39,696952.0,0.0,0.0
11:28:39,696972.0,0.0,0.0
11:28:39,696919.0,0.0,0.0
11:28:39,696946.0,0.0,0.0
11:28:39,696889.0,0.0,0.0
11:28:39,696893.0,0.0,0.0
11:28:39,696892.0,0.0,0.0
11:28:40,696817.0,0.0,0.0
11:28:40,696815.0,0.0,0.0
11:28:40,696709.0,0.0,0.0
11:28:40,696719.0,0.0,0.0
11:28:40,696889.0,0.0,0.0
11:28:40,696986.0,0.0,0.0
11:28:40,696986.0,0.0,0.0
11:28:40,696859.0,0.0,0.0
11:28:40,696816.0,0.0,0.0
11:28:40,696813.0,0.0,0.0
11:28:40,696831.0,0.0,0.0
11:28:40,696885.0,0.0,0.0
11:28:40,696821.0,0.0,0.0
11:28:40,696833.0,0.0,0.0
11:28:40,696838.0,0.0,0.0
11:28:40,696789.0,0.0,0.0
11:28:40,696779.0,0.0,0.0
11:28:40,696719.0,0.0,0.0
11:28:40,696736.0,0.0,0.0
11:28:40,696735.0,0.0,0.0
11:28:40,696713.0,0.0,0.0
11:28:40,696758.0,0.0,0.0
11:28:40,696739.0,0.0,0.0
11:28:40,696772.0,0.0,0.0
11:28:40,696817.0,0.0,0.0
11:28:40,696835.0,0.0,0.0
11:28:40,696876.0,0.0,0.0
11:28:40,696785.0,0.0,0.0
11:28:40,696796.0,0.0,0.0
11:28:40,696787.0,0.0,0.0
11:28:40,696778.0,0.0,0.0
11:28:40,696818.0,0.0,0.0
11:28:40,696766.0,0.0,0.0
11:28:40,696756.0,0.0,0.0
11:28:40,696750.0,0.0,0.0
11:28:40,696764.0,0.0,0.0
11:28:40,696809.0,0.0,0.0
11:28:40,696738.0,0.0,0.0
11:28:40,696726.0,0.0,0.0
11:28:40,696693.0,0.0,0.0
11:28:40,696625.0,0.0,0.0
11:28:40,696629.0,0.0,0.0
11:28:40,696593.0,0.0,0.0
11:28:40,696564.0,0.0,0.0
11:28:40,696560.0,0.0,0.0
11:28:40,696545.0,0.0,0.0
11:28:40,696544.0,0.0,0.0
11:28:40,696481.0,0.0,0.0
11:28:40,696494.0,0.0,0.0
11:28:40,696454.0,0.0,0.0
11:28:40,696396.0,0.0,0.0
11:28:40,696405.0,0.0,0.0
11:28:40,696308.0,0.0,0.0
11:28:40,696274.0,0.0,0.0
11:28:40,696222.0,0.0,0.0
11:28:40,696171.0,0.0,0.0
11:28:40,696186.0,0.0,0.0
11:28:40,696129.0,0.0,0.0
11:28:40,696144.0,0.0,0.0
11:28:40,696124.0,0.0,0.0
11:28:40,696071.0,0.0,0.0
11:28:40,696059.0,0.0,0.0
11:28:40,695960.0,0.0,0.0
11:28:40,695910.0,0.0,0.0
11:28:40,695839.0,0.0,0.0
11:28:40,695754.0,0.0,0.0
11:28:40,695762.0,0.0,0.0
11:28:40,695710.0,0.0,0.0
11:28:40,695729.0,0.0,0.0
11:28:40,695691.0,0.0,0.0
11:28:40,695678.0,0.0,0.0
11:28:40,695723.0,0.0,0.0
11:28:40,695711.0,0.0,0.0
11:28:40,695741.0,0.0,0.0
11:28:40,695801.0,0.0,0.0
11:28:40,695819.0,0.0,0.0
11:28:40,695870.0,0.0,0.0
11:28:40,695880.0,0.0,0.0
11:28:40,695897.0,0.0,0.0
11:28:40,695875.0,0.0,0.0
11:28:40,695808.0,0.0,0.0
11:28:40,695806.0,0.0,0.0
11:28:40,695738.0,0.0,0.0
11:28:40,695659.0,0.0,0.0
11:28:40,695584.0,0.0,0.0
11:28:40,695503.0,0.0,0.0
11:28:40,695444.0,0.0,0.0
11:28:40,695299.0,0.0,0.0
11:28:40,695288.0,0.0,0.0
11:28:40,695255.0,0.0,0.0
11:28:40,695178.0,0.0,0.0
11:28:40,695198.0,0.0,0.0
11:28:40,695134.0,0.0,0.0
11:28:40,695121.0,0.0,0.0
11:28:40,695106.0,0.0,0.0
11:28:40,695067.0,0.0,0.0
11:28:40,695027.0,0.0,0.0
11:28:40,694853.0,0.0,0.0
11:28:40,694756.0,0.0,0.0
11:28:40,694712.0,0.0,0.0
11:28:40,694756.0,0.0,0.0
11:28:40,694797.0,0.0,0.0
11:28:40,694653.0,0.0,0.0
11:28:40,694597.0,0.0,0.0
11:28:40,694527.0,0.0,0.0
11:28:40,694472.0,0.0,0.0
11:28:40,694481.0,0.0,0.0
11:28:40,694413.0,0.0,0.0
11:28:40,694394.0,0.0,0.0
11:28:40,694400.0,0.0,0.0
11:28:40,694401.0,0.0,0.0
11:28:40,694434.0,0.0,0.0
11:28:40,694394.0,0.0,0.0
11:28:40,694413.0,0.0,0.0
11:28:40,694394.0,0.0,0.0
11:28:40,694428.0,0.0,0.0
11:28:40,694504.0,0.0,0.0
11:28:40,694477.0,0.0,0.0
11:28:40,694538.0,0.0,0.0
11:28:40,694549.0,0.0,0.0
11:28:40,694540.0,0.0,0.0
11:28:40,694587.0,0.0,0.0
11:28:40,694559.0,0.0,0.0
11:28:40,694584.0,0.0,0.0
11:28:40,694578.0,0.0,0.0
11:28:41,694554.0,0.0,0.0
11:28:41,694573.0,0.0,0.0
11:28:41,694494.0,0.0,0.0
11:28:41,694469.0,0.0,0.0
11:28:41,694426.0,0.0,0.0
11:28:41,694369.0,0.0,0.0
11:28:41,694329.0,0.0,0.0
11:28:41,694240.0,0.0,0.0
11:28:41,694236.0,0.0,0.0
11:28:41,694179.0,0.0,0.0
11:28:41,694088.0,0.0,0.0
11:28:41,694057.0,0.0,0.0
11:28:41,693973.0,0.0,0.0
11:28:41,693911.0,0.0,0.0
11:28:41,693877.0,0.0,0.0
11:28:41,693826.0,0.0,0.0
11:28:41,693829.0,0.0,0.0
11:28:41,693756.0,0.0,0.0
11:28:41,693713.0,0.0,0.0
11:28:41,693696.0,0.0,0.0
11:28:41,693646.0,0.0,0.0
11:28:41,693621.0,0.0,0.0
11:28:41,693497.0,0.0,0.0
11:28:41,693404.0,0.0,0.0
11:28:41,693351.0,0.0,0.0
11:28:41,693252.0,0.0,0.0
11:28:41,693196.0,0.0,0.0
11:28:41,693069.0,0.0,0.0
11:28:41,692971.0,0.0,0.0
11:28:41,692844.0,0.0,0.0
11:28:41,692716.0,0.0,0.0
11:28:41,692608.0,0.0,0.0
11:28:41,692441.0,0.0,0.0
11:28:41,692404.0,0.0,0.0
11:28:41,692331.0,0.0,0.0
11:28:41,692173.0,0.0,0.0
11:28:41,692066.0,0.0,0.0
11:28:41,691873.0,0.0,0.0
11:28:41,691699.0,0.0,0.0
11:28:41,691475.0,0.0,0.0
11:28:41,691299.0,0.0,0.0
11:28:41,691199.0,0.0,0.0
11:28:41,691062.0,0.0,0.0
11:28:41,690980.0,0.0,0.0
11:28:41,690970.0,0.0,0.0
11:28:41,691003.0,0.0,0.0
11:28:41,691192.0,0.0,0.0
11:28:41,691353.0,0.0,0.0
11:28:41,691156.0,0.0,0.0
11:28:41,691089.0,0.0,0.0
11:28:41,691180.0,0.0,0.0
11:28:41,691285.0,0.0,0.0
11:28:41,691466.0,0.0,0.0
11:28:41,691929.0,0.0,0.0
11:28:41,691955.0,0.0,0.0
11:28:41,691856.0,0.0,0.0
11:28:41,691903.0,0.0,0.0
11:28:41,691949.0,0.0,0.0
11:28:41,692171.0,0.0,0.0
11:28:41,692264.0,0.0,0.0
11:28:41,692308.0,0.0,0.0
11:28:41,692518.0,0.0,0.0
11:28:41,692693.0,0.0,0.0
11:28:41,692929.0,0.0,0.0
11:28:41,693051.0,0.0,0.0
11:28:41,693099.0,0.0,0.0
11:28:41,693198.0,0.0,0.0
11:28:41,693169.0,0.0,0.0
11:28:41,693203.0,0.0,0.0
11:28:41,693212.0,0.0,0.0
11:28:41,693263.0,0.0,0.0
11:28:41,693430.0,0.0,0.0
11:28:41,693393.0,0.0,0.0
11:28:41,693266.0,0.0,0.0
11:28:41,693129.0,0.0,0.0
11:28:41,693056.0,0.0,0.0
11:28:41,693039.0,0.0,0.0
11:28:41,692973.0,0.0,0.0
11:28:41,692976.0,0.0,0.0
11:28:41,692943.0,0.0,0.0
11:28:41,692943.0,0.0,0.0
11:28:41,692963.0,0.0,0.0
11:28:41,692939.0,0.0,0.0
11:28:41,692991.0,0.0,0.0
11:28:41,692961.0,0.0,0.0
11:28:41,692939.0,0.0,0.0
11:28:41,693011.0,0.0,0.0
11:28:41,693079.0,0.0,0.0
11:28:41,693151.0,0.0,0.0
11:28:41,693112.0,0.0,0.0
11:28:41,693117.0,0.0,0.0
11:28:41,693169.0,0.0,0.0
11:28:41,693134.0,0.0,0.0
11:28:41,693144.0,0.0,0.0
11:28:41,693133.0,0.0,0.0
11:28:41,693146.0,0.0,0.0
11:28:41,693213.0,0.0,0.0
11:28:41,693196.0,0.0,0.0
11:28:41,693209.0,0.0,0.0
11:28:41,693148.0,0.0,0.0
11:28:41,693078.0,0.0,0.0
11:28:41,693163.0,0.0,0.0
11:28:41,693204.0,0.0,0.0
11:28:41,693419.0,0.0,0.0
11:28:41,693591.0,0.0,0.0
11:28:41,693726.0,0.0,0.0
11:28:41,693831.0,0.0,0.0
11:28:41,693781.0,0.0,0.0
11:28:41,693802.0,0.0,0.0
11:28:41,693804.0,0.0,0.0
11:28:41,693829.0,0.0,0.0
11:28:41,693829.0,0.0,0.0
11:28:41,693708.0,0.0,0.0
11:28:41,693713.0,0.0,0.0
11:28:41,693533.0,0.0,0.0
11:28:41,693363.0,0.0,0.0
11:28:41,693194.0,0.0,0.0
11:28:41,693054.0,0.0,0.0
11:28:41,693075.0,0.0,0.0
11:28:41,692933.0,0.0,0.0
11:28:41,692916.0,0.0,0.0
11:28:41,692937.0,0.0,0.0
11:28:41,692821.0,0.0,0.0
11:28:41,692888.0,0.0,0.0
11:28:41,692879.0,0.0,0.0
11:28:42,692849.0,0.0,0.0
11:28:42,692944.0,0.0,0.0
11:28:42,693009.0,0.0,0.0
11:28:42,693122.0,0.0,0.0
11:28:42,693074.0,0.0,0.0
11:28:42,693064.0,0.0,0.0
11:28:42,693134.0,0.0,0.0
11:28:42,693098.0,0.0,0.0
11:28:42,693165.0,0.0,0.0
11:28:42,693149.0,0.0,0.0
11:28:42,693170.0,0.0,0.0
11:28:42,693216.0,0.0,0.0
11:28:42,693099.0,0.0,0.0
11:28:42,693246.0,0.0,0.0
11:28:42,693247.0,0.0,0.0
11:28:42,693134.0,0.0,0.0
11:28:42,693071.0,0.0,0.0
11:28:42,692959.0,0.0,0.0
11:28:42,693031.0,0.0,0.0
11:28:42,693016.0,0.0,0.0
11:28:42,692999.0,0.0,0.0
11:28:42,693006.0,0.0,0.0
11:28:42,692938.0,0.0,0.0
11:28:42,692983.0,0.0,0.0
11:28:42,692871.0,0.0,0.0
11:28:42,692834.0,0.0,0.0
11:28:42,692871.0,0.0,0.0
11:28:42,692829.0,0.0,0.0
11:28:42,692926.0,0.0,0.0
11:28:42,692898.0,0.0,0.0
11:28:42,692906.0,0.0,0.0
11:28:42,692941.0,0.0,0.0
11:28:42,692801.0,0.0,0.0
11:28:42,692838.0,0.0,0.0
11:28:42,692721.0,0.0,0.0
11:28:42,692689.0,0.0,0.0
11:28:42,692739.0,0.0,0.0
11:28:42,692717.0,0.0,0.0
11:28:42,692896.0,0.0,0.0
11:28:42,692919.0,0.0,0.0
11:28:42,692932.0,0.0,0.0
11:28:42,692917.0,0.0,0.0
11:28:42,692756.0,0.0,0.0
11:28:42,692859.0,0.0,0.0
11:28:42,692903.0,0.0,0.0
11:28:42,693092.0,0.0,0.0
11:28:42,693112.0,0.0,0.0
11:28:42,693011.0,0.0,0.0
11:28:42,693046.0,0.0,0.0
11:28:42,692968.0,0.0,0.0
11:28:42,692976.0,0.0,0.0
11:28:42,693036.0,0.0,0.0
11:28:42,692919.0,0.0,0.0
11:28:42,692989.0,0.0,0.0
11:28:42,692891.0,0.0,0.0
11:28:42,692897.0,0.0,0.0
11:28:42,692901.0,0.0,0.0
11:28:42,692848.0,0.0,0.0
11:28:42,692906.0,0.0,0.0
11:28:42,692735.0,0.0,0.0
11:28:42,692663.0,0.0,0.0
11:28:42,692673.0,0.0,0.0
11:28:42,692635.0,0.0,0.0
11:28:42,692692.0,0.0,0.0
11:28:42,692605.0,0.0,0.0
11:28:42,692584.0,0.0,0.0
11:28:42,692511.0,0.0,0.0
11:28:42,692361.0,0.0,0.0
11:28:42,692301.0,0.0,0.0
11:28:42,692224.0,0.0,0.0
11:28:42,692344.0,0.0,0.0
11:28:42,692378.0,0.0,0.0
11:28:42,692303.0,0.0,0.0
11:28:42,692396.0,0.0,0.0
11:28:42,692448.0,0.0,0.0
11:28:42,692536.0,0.0,0.0
11:28:42,692576.0,0.0,0.0
11:28:42,692574.0,0.0,0.0
11:28:42,692733.0,0.0,0.0
11:28:42,692768.0,0.0,0.0
11:28:42,692863.0,0.0,0.0
11:28:42,692917.0,0.0,0.0
11:28:42,692828.0,0.0,0.0
11:28:42,692835.0,0.0,0.0
11:28:42,692804.0,0.0,0.0
11:28:42,692799.0,0.0,0.0
11:28:42,692849.0,0.0,0.0
11:28:42,692803.0,0.0,0.0
11:28:42,692833.0,0.0,0.0
11:28:42,692818.0,0.0,0.0
11:28:42,692834.0,0.0,0.0
11:28:42,692856.0,0.0,0.0
11:28:42,692775.0,0.0,0.0
11:28:42,692738.0,0.0,0.0
11:28:42,692676.0,0.0,0.0
11:28:42,692672.0,0.0,0.0
11:28:42,692647.0,0.0,0.0
11:28:42,692566.0,0.0,0.0
11:28:42,692576.0,0.0,0.0
11:28:42,692506.0,0.0,0.0
11:28:42,692467.0,0.0,0.0
11:28:42,692396.0,0.0,0.0
11:28:42,692316.0,0.0,0.0
11:28:42,692349.0,0.0,0.0
11:28:42,692261.0,0.0,0.0
11:28:42,692217.0,0.0,0.0
11:28:42,692178.0,0.0,0.0
11:28:42,692110.0,0.0,0.0
11:28:42,692125.0,0.0,0.0
11:28:42,691998.0,0.0,0.0
11:28:42,692003.0,0.0,0.0
11:28:42,692009.0,0.0,0.0
11:28:42,691938.0,0.0,0.0
11:28:42,691993.0,0.0,0.0
11:28:42,691896.0,0.0,0.0
11:28:42,691908.0,0.0,0.0
11:28:42,691858.0,0.0,0.0
11:28:42,691734.0,0.0,0.0
11:28:42,691811.0,0.0,0.0
11:28:42,691744.0,0.0,0.0
11:28:42,691683.0,0.0,0.0
11:28:42,691650.0,0.0,0.0
11:28:42,691561.0,0.0,0.0
11:28:42,691596.0,0.0,0.0
11:28:42,691476.0,0.0,0.0
11:28:43,691442.0,0.0,0.0
11:28:43,691397.0,0.0,0.0
11:28:43,691274.0,0.0,0.0
11:28:43,691291.0,0.0,0.0
11:28:43,691189.0,0.0,0.0
11:28:43,691188.0,0.0,0.0
11:28:43,691149.0,0.0,0.0
11:28:43,691023.0,0.0,0.0
11:28:43,691029.0,0.0,0.0
11:28:43,690935.0,0.0,0.0
11:28:43,690889.0,0.0,0.0
11:28:43,690856.0,0.0,0.0
11:28:43,690746.0,0.0,0.0
11:28:43,690809.0,0.0,0.0
11:28:43,690681.0,0.0,0.0
11:28:43,690648.0,0.0,0.0
11:28:43,690577.0,0.0,0.0
11:28:43,690458.0,0.0,0.0
11:28:43,690574.0,0.0,0.0
11:28:43,690586.0,0.0,0.0
11:28:43,690572.0,0.0,0.0
11:28:43,690459.0,0.0,0.0
11:28:43,690303.0,0.0,0.0
11:28:43,690237.0,0.0,0.0
11:28:43,690054.0,0.0,0.0
11:28:43,690019.0,0.0,0.0
11:28:43,689913.0,0.0,0.0
11:28:43,689791.0,0.0,0.0
11:28:43,689763.0,0.0,0.0
11:28:43,689644.0,0.0,0.0
11:28:43,689599.0,0.0,0.0
11:28:43,689502.0,0.0,0.0
11:28:43,689411.0,0.0,0.0
11:28:43,689327.0,0.0,0.0
11:28:43,689181.0,0.0,0.0
11:28:43,689168.0,0.0,0.0
11:28:43,689154.0,0.0,0.0
11:28:43,689199.0,0.0,0.0
11:28:43,689324.0,0.0,0.0
11:28:43,689030.0,0.0,0.0
11:28:43,688960.0,0.0,0.0
11:28:43,688914.0,0.0,0.0
11:28:43,688806.0,0.0,0.0
11:28:43,688861.0,0.0,0.0
11:28:43,688959.0,0.0,0.0
11:28:43,689004.0,0.0,0.0
11:28:43,688910.0,0.0,0.0
11:28:43,688839.0,0.0,0.0
11:28:43,688831.0,0.0,0.0
11:28:43,688694.0,0.0,0.0
11:28:43,688661.0,0.0,0.0
11:28:43,688562.0,0.0,0.0
11:28:43,688431.0,0.0,0.0
11:28:43,688331.0,0.0,0.0
11:28:43,688167.0,0.0,0.0
11:28:43,688066.0,0.0,0.0
11:28:43,687958.0,0.0,0.0
11:28:43,687792.0,0.0,0.0
11:28:43,687638.0,0.0,0.0
11:28:43,687451.0,0.0,0.0
11:28:43,687389.0,0.0,0.0
11:28:43,687310.0,0.0,0.0
11:28:43,687201.0,0.0,0.0
11:28:43,687104.0,0.0,0.0
11:28:43,686939.0,0.0,0.0
11:28:43,686750.0,0.0,0.0
11:28:43,686453.0,0.0,0.0
11:28:43,686470.0,0.0,0.0
11:28:43,686531.0,0.0,0.0
11:28:43,686482.0,0.0,0.0
11:28:43,686434.0,0.0,0.0
11:28:43,686318.0,0.0,0.0
11:28:43,686218.0,0.0,0.0
11:28:43,686165.0,0.0,0.0
11:28:43,686117.0,0.0,0.0
11:28:43,686092.0,0.0,0.0
11:28:43,686003.0,0.0,0.0
11:28:43,685928.0,0.0,0.0
11:28:43,685926.0,0.0,0.0
11:28:43,685866.0,0.0,0.0
11:28:43,685890.0,0.0,0.0
11:28:43,685988.0,0.0,0.0
11:28:43,686018.0,0.0,0.0
11:28:43,686050.0,0.0,0.0
11:28:43,685984.0,0.0,0.0
11:28:43,686043.0,0.0,0.0
11:28:43,686083.0,0.0,0.0
11:28:43,686006.0,0.0,0.0
11:28:43,685998.0,0.0,0.0
11:28:43,686024.0,0.0,0.0
11:28:43,686089.0,0.0,0.0
11:28:43,686189.0,0.0,0.0
11:28:43,686264.0,0.0,0.0
11:28:43,686333.0,0.0,0.0
11:28:43,686354.0,0.0,0.0
11:28:43,686402.0,0.0,0.0
11:28:43,686389.0,0.0,0.0
11:28:43,686336.0,0.0,0.0
11:28:43,686374.0,0.0,0.0
11:28:43,686414.0,0.0,0.0
11:28:43,686499.0,0.0,0.0
11:28:43,686523.0,0.0,0.0
11:28:43,686544.0,0.0,0.0
11:28:43,686686.0,0.0,0.0
11:28:43,686786.0,0.0,0.0
11:28:43,686829.0,0.0,0.0
11:28:43,686849.0,0.0,0.0
11:28:43,686910.0,0.0,0.0
11:28:43,686943.0,0.0,0.0
11:28:43,686878.0,0.0,0.0
11:28:43,686876.0,0.0,0.0
11:28:43,686928.0,0.0,0.0
11:28:43,686916.0,0.0,0.0
11:28:43,686931.0,0.0,0.0
11:28:43,686884.0,0.0,0.0
11:28:43,686845.0,0.0,0.0
11:28:43,686709.0,0.0,0.0
11:28:43,686554.0,0.0,0.0
11:28:43,686468.0,0.0,0.0
11:28:43,686494.0,0.0,0.0
11:28:43,686657.0,0.0,0.0
11:28:43,686598.0,0.0,0.0
11:28:43,686455.0,0.0,0.0
11:28:43,686427.0,0.0,0.0
11:28:43,686305.0,0.0,0.0
11:28:44,686361.0,0.0,0.0
11:28:44,686401.0,0.0,0.0
11:28:44,686348.0,0.0,0.0
11:28:44,686298.0,0.0,0.0
11:28:44,686088.0,0.0,0.0
11:28:44,686028.0,0.0,0.0
11:28:44,686074.0,0.0,0.0
11:28:44,686126.0,0.0,0.0
11:28:44,686226.0,0.0,0.0
11:28:44,686091.0,0.0,0.0
11:28:44,685774.0,0.0,0.0
11:28:44,685611.0,0.0,0.0
11:28:44,685793.0,0.0,0.0
11:28:44,685959.0,0.0,0.0
11:28:44,685896.0,0.0,0.0
11:28:44,685903.0,0.0,0.0
11:28:44,685893.0,0.0,0.0
11:28:44,685887.0,0.0,0.0
11:28:44,685891.0,0.0,0.0
11:28:44,685807.0,0.0,0.0
11:28:44,685813.0,0.0,0.0
11:28:44,685764.0,0.0,0.0
11:28:44,685734.0,0.0,0.0
11:28:44,685736.0,0.0,0.0
11:28:44,685611.0,0.0,0.0
11:28:44,685585.0,0.0,0.0
11:28:44,685514.0,0.0,0.0
11:28:44,685443.0,0.0,0.0
11:28:44,685418.0,0.0,0.0
11:28:44,685344.0,0.0,0.0
11:28:44,685370.0,0.0,0.0
11:28:44,685376.0,0.0,0.0
11:28:44,685423.0,0.0,0.0
11:28:44,685463.0,0.0,0.0
11:28:44,685412.0,0.0,0.0
11:28:44,685486.0,0.0,0.0
11:28:44,685419.0,0.0,0.0
11:28:44,685332.0,0.0,0.0
11:28:44,685268.0,0.0,0.0
11:28:44,685079.0,0.0,0.0
11:28:44,685044.0,0.0,0.0
11:28:44,685047.0,0.0,0.0
11:28:44,685008.0,0.0,0.0
11:28:44,684989.0,0.0,0.0
11:28:44,684908.0,0.0,0.0
11:28:44,684913.0,0.0,0.0
11:28:44,684949.0,0.0,0.0
11:28:44,684936.0,0.0,0.0
11:28:44,684854.0,0.0,0.0
11:28:44,684785.0,0.0,0.0
11:28:44,684904.0,0.0,0.0
11:28:44,684936.0,0.0,0.0
11:28:44,684913.0,0.0,0.0
11:28:44,684806.0,0.0,0.0
11:28:44,684612.0,0.0,0.0
11:28:44,684431.0,0.0,0.0
11:28:44,684323.0,0.0,0.0
11:28:44,684301.0,0.0,0.0
11:28:44,683988.0,0.0,0.0
11:28:44,683799.0,0.0,0.0
11:28:44,684355.0,0.0,0.0
11:28:44,684536.0,0.0,0.0
11:28:44,684694.0,0.0,0.0
11:28:44,684627.0,0.0,0.0
11:28:44,684516.0,0.0,0.0
11:28:44,684875.0,0.0,0.0
11:28:44,685208.0,0.0,0.0
11:28:44,684933.0,0.0,0.0
11:28:44,684629.0,0.0,0.0
11:28:44,684878.0,0.0,0.0
11:28:44,685471.0,0.0,0.0
11:28:44,685803.0,0.0,0.0
11:28:44,685737.0,0.0,0.0
11:28:44,685578.0,0.0,0.0
11:28:44,685686.0,0.0,0.0
11:28:44,685838.0,0.0,0.0
11:28:44,685861.0,0.0,0.0
11:28:44,685881.0,0.0,0.0
11:28:44,685874.0,0.0,0.0
11:28:44,685923.0,0.0,0.0
11:28:44,686130.0,0.0,0.0
11:28:44,686573.0,0.0,0.0
11:28:44,686867.0,0.0,0.0
11:28:44,687048.0,0.0,0.0
11:28:44,687236.0,0.0,0.0
11:28:44,687529.0,0.0,0.0
11:28:44,687751.0,0.0,0.0
11:28:44,687826.0,0.0,0.0
11:28:44,687917.0,0.0,0.0
11:28:44,687874.0,0.0,0.0
11:28:44,687691.0,0.0,0.0
11:28:44,687524.0,0.0,0.0
11:28:44,687753.0,0.0,0.0
11:28:44,687699.0,0.0,0.0
11:28:44,687366.0,0.0,0.0
11:28:44,687500.0,0.0,0.0
11:28:44,687778.0,0.0,0.0
11:28:44,687541.0,0.0,0.0
11:28:44,687441.0,0.0,0.0
11:28:44,687579.0,0.0,0.0
11:28:44,687663.0,0.0,0.0
11:28:44,687523.0,0.0,0.0
11:28:44,687383.0,0.0,0.0
11:28:44,687581.0,0.0,0.0
11:28:44,687783.0,0.0,0.0
11:28:44,687386.0,0.0,0.0
11:28:44,686741.0,0.0,0.0
11:28:44,686937.0,0.0,0.0
11:28:44,688244.0,0.0,0.0
11:28:44,689093.0,0.0,0.0
11:28:44,689321.0,0.0,0.0
11:28:44,689710.0,0.0,0.0
11:28:44,689371.0,0.0,0.0
11:28:44,689111.0,0.0,0.0
11:28:44,689029.0,0.0,0.0
11:28:44,689499.0,0.0,0.0
11:28:44,688843.0,0.0,0.0
11:28:44,688136.0,0.0,0.0
11:28:44,688294.0,0.0,0.0
11:28:44,688584.0,0.0,0.0
11:28:44,688880.0,0.0,0.0
11:28:44,689103.0,0.0,0.0
11:28:44,689223.0,0.0,0.0
11:28:44,689336.0,0.0,0.0
11:28:44,689189.0,0.0,0.0
11:28:45,688963.0,0.0,0.0
11:28:45,689071.0,0.0,0.0
11:28:45,689394.0,0.0,0.0
11:28:45,689360.0,0.0,0.0
11:28:45,689064.0,0.0,0.0
11:28:45,689219.0,0.0,0.0
11:28:45,689566.0,0.0,0.0
11:28:45,688894.0,0.0,0.0
11:28:45,688611.0,0.0,0.0
11:28:45,688571.0,0.0,0.0
11:28:45,688408.0,0.0,0.0
11:28:45,688682.0,0.0,0.0
11:28:45,688924.0,0.0,0.0
11:28:45,689083.0,0.0,0.0
11:28:45,689438.0,0.0,0.0
11:28:45,689819.0,0.0,0.0
11:28:45,689435.0,0.0,0.0
11:28:45,689518.0,0.0,0.0
11:28:45,689970.0,0.0,0.0
11:28:45,689834.0,0.0,0.0
11:28:45,689602.0,0.0,0.0
11:28:45,689289.0,0.0,0.0
11:28:45,689235.0,0.0,0.0
11:28:45,689486.0,0.0,0.0
11:28:45,689431.0,0.0,0.0
11:28:45,689165.0,0.0,0.0
11:28:45,689076.0,0.0,0.0
11:28:45,688983.0,0.0,0.0
11:28:45,688813.0,0.0,0.0
11:28:45,688519.0,0.0,0.0
11:28:45,688823.0,0.0,0.0
11:28:45,689191.0,0.0,0.0
11:28:45,689396.0,0.0,0.0
11:28:45,689289.0,0.0,0.0
11:28:45,689080.0,0.0,0.0
11:28:45,689025.0,0.0,0.0
11:28:45,688897.0,0.0,0.0
11:28:45,688846.0,0.0,0.0
11:28:45,688895.0,0.0,0.0
11:28:45,688957.0,0.0,0.0
11:28:45,689031.0,0.0,0.0
11:28:45,689035.0,0.0,0.0
11:28:45,689118.0,0.0,0.0
11:28:45,689139.0,0.0,0.0
11:28:45,688998.0,0.0,0.0
11:28:45,688909.0,0.0,0.0
11:28:45,688815.0,0.0,0.0
11:28:45,688732.0,0.0,0.0
11:28:45,688629.0,0.0,0.0
11:28:45,688611.0,0.0,0.0
11:28:45,688629.0,0.0,0.0
11:28:45,688746.0,0.0,0.0
11:28:45,688843.0,0.0,0.0
11:28:45,688813.0,0.0,0.0
11:28:45,688763.0,0.0,0.0
11:28:45,688783.0,0.0,0.0
11:28:45,688739.0,0.0,0.0
11:28:45,688783.0,0.0,0.0
11:28:45,688768.0,0.0,0.0
11:28:45,688685.0,0.0,0.0
11:28:45,688721.0,0.0,0.0
11:28:45,688728.0,0.0,0.0
11:28:45,688773.0,0.0,0.0
11:28:45,688807.0,0.0,0.0
11:28:45,688756.0,0.0,0.0
11:28:45,688798.0,0.0,0.0
11:28:45,688743.0,0.0,0.0
11:28:45,688753.0,0.0,0.0
11:28:45,688784.0,0.0,0.0
11:28:45,688759.0,0.0,0.0
11:28:45,688831.0,0.0,0.0
11:28:45,688863.0,0.0,0.0
11:28:45,688884.0,0.0,0.0
11:28:45,688858.0,0.0,0.0
11:28:45,688803.0,0.0,0.0
11:28:45,688841.0,0.0,0.0
11:28:45,688761.0,0.0,0.0
11:28:45,688739.0,0.0,0.0
11:28:45,688753.0,0.0,0.0
11:28:45,688677.0,0.0,0.0
11:28:45,688652.0,0.0,0.0
11:28:45,688591.0,0.0,0.0
11:28:45,688563.0,0.0,0.0
11:28:45,688547.0,0.0,0.0
11:28:45,688498.0,0.0,0.0
11:28:45,688529.0,0.0,0.0
11:28:45,688554.0,0.0,0.0
11:28:45,688643.0,0.0,0.0
11:28:45,688647.0,0.0,0.0
11:28:45,688630.0,0.0,0.0
11:28:45,688659.0,0.0,0.0
11:28:45,688641.0,0.0,0.0
11:28:45,688647.0,0.0,0.0
11:28:45,688677.0,0.0,0.0
11:28:45,688698.0,0.0,0.0
11:28:45,688773.0,0.0,0.0
11:28:45,688813.0,0.0,0.0
11:28:45,688906.0,0.0,0.0
11:28:45,688962.0,0.0,0.0
11:28:45,688949.0,0.0,0.0
11:28:45,689027.0,0.0,0.0
11:28:45,688977.0,0.0,0.0
11:28:45,688983.0,0.0,0.0
11:28:45,689074.0,0.0,0.0
11:28:45,689158.0,0.0,0.0
11:28:45,689243.0,0.0,0.0
11:28:45,689263.0,0.0,0.0
11:28:45,689326.0,0.0,0.0
11:28:45,689350.0,0.0,0.0
11:28:45,689318.0,0.0,0.0
11:28:45,689392.0,0.0,0.0
11:28:45,689445.0,0.0,0.0
11:28:45,689515.0,0.0,0.0
11:28:45,689614.0,0.0,0.0
11:28:45,689670.0,0.0,0.0
11:28:45,689739.0,0.0,0.0
11:28:45,689759.0,0.0,0.0
11:28:45,689783.0,0.0,0.0
11:28:45,689819.0,0.0,0.0
11:28:45,689793.0,0.0,0.0
11:28:45,689844.0,0.0,0.0
11:28:45,689787.0,0.0,0.0
11:28:45,689815.0,0.0,0.0
11:28:45,689813.0,0.0,0.0
11:28:45,689770.0,0.0,0.0
11:28:46,689862.0,0.0,0.0
11:28:46,689886.0,0.0,0.0
11:28:46,690000.0,0.0,0.0
11:28:46,690087.0,0.0,0.0
11:28:46,690153.0,0.0,0.0
11:28:46,690258.0,0.0,0.0
11:28:46,690310.0,0.0,0.0
11:28:46,690416.0,0.0,0.0
11:28:46,690443.0,0.0,0.0
11:28:46,690434.0,0.0,0.0
11:28:46,690437.0,0.0,0.0
11:28:46,690404.0,0.0,0.0
11:28:46,690374.0,0.0,0.0
11:28:46,690356.0,0.0,0.0
11:28:46,690362.0,0.0,0.0
11:28:46,690419.0,0.0,0.0
11:28:46,690438.0,0.0,0.0
11:28:46,690388.0,0.0,0.0
11:28:46,690279.0,0.0,0.0
11:28:46,690187.0,0.0,0.0
11:28:46,690307.0,0.0,0.0
11:28:46,690357.0,0.0,0.0
11:28:46,690355.0,0.0,0.0
11:28:46,690419.0,0.0,0.0
11:28:46,690476.0,0.0,0.0
11:28:46,690491.0,0.0,0.0
11:28:46,690544.0,0.0,0.0
11:28:46,690697.0,0.0,0.0
11:28:46,690713.0,0.0,0.0
11:28:46,690611.0,0.0,0.0
11:28:46,690629.0,0.0,0.0
11:28:46,690676.0,0.0,0.0
11:28:46,690764.0,0.0,0.0
11:28:46,690804.0,0.0,0.0
11:28:46,690874.0,0.0,0.0
11:28:46,691016.0,0.0,0.0
11:28:46,691149.0,0.0,0.0
11:28:46,691299.0,0.0,0.0
11:28:46,691413.0,0.0,0.0
11:28:46,691462.0,0.0,0.0
11:28:46,691585.0,0.0,0.0
11:28:46,691647.0,0.0,0.0
11:28:46,691679.0,0.0,0.0
11:28:46,691594.0,0.0,0.0
11:28:46,691448.0,0.0,0.0
11:28:46,691529.0,0.0,0.0
11:28:46,691548.0,0.0,0.0
11:28:46,691547.0,0.0,0.0
11:28:46,691623.0,0.0,0.0
11:28:46,691668.0,0.0,0.0
11:28:46,691751.0,0.0,0.0
11:28:46,691853.0,0.0,0.0
11:28:46,691935.0,0.0,0.0
11:28:46,692026.0,0.0,0.0
11:28:46,692046.0,0.0,0.0
11:28:46,692240.0,0.0,0.0
11:28:46,692339.0,0.0,0.0
11:28:46,692314.0,0.0,0.0
11:28:46,692228.0,0.0,0.0
11:28:46,692181.0,0.0,0.0
11:28:46,692336.0,0.0,0.0
11:28:46,692417.0,0.0,0.0
11:28:46,692500.0,0.0,0.0
11:28:46,692678.0,0.0,0.0
11:28:46,692861.0,0.0,0.0
11:28:46,693044.0,0.0,0.0
11:28:46,693107.0,0.0,0.0
11:28:46,693191.0,0.0,0.0
11:28:46,693218.0,0.0,0.0
11:28:46,693225.0,0.0,0.0
11:28:46,693246.0,0.0,0.0
11:28:46,693210.0,0.0,0.0
11:28:46,693184.0,0.0,0.0
11:28:46,693168.0,0.0,0.0
11:28:46,693126.0,0.0,0.0
11:28:46,693129.0,0.0,0.0
11:28:46,693106.0,0.0,0.0
11:28:46,693181.0,0.0,0.0
11:28:46,693223.0,0.0,0.0
11:28:46,693182.0,0.0,0.0
11:28:46,693158.0,0.0,0.0
11:28:46,693136.0,0.0,0.0
11:28:46,693164.0,0.0,0.0
11:28:46,693129.0,0.0,0.0
11:28:46,693100.0,0.0,0.0
11:28:46,693089.0,0.0,0.0
11:28:46,693058.0,0.0,0.0
11:28:46,693042.0,0.0,0.0
11:28:46,693019.0,0.0,0.0
11:28:46,692982.0,0.0,0.0
11:28:46,692999.0,0.0,0.0
11:28:46,692949.0,0.0,0.0
11:28:46,692918.0,0.0,0.0
11:28:46,692933.0,0.0,0.0
11:28:46,692957.0,0.0,0.0
11:28:46,692993.0,0.0,0.0
11:28:46,692956.0,0.0,0.0
11:28:46,692977.0,0.0,0.0
11:28:46,693012.0,0.0,0.0
11:28:46,692933.0,0.0,0.0
11:28:46,692921.0,0.0,0.0
11:28:46,692890.0,0.0,0.0
11:28:46,692929.0,0.0,0.0
11:28:46,692911.0,0.0,0.0
11:28:46,692856.0,0.0,0.0
11:28:46,692848.0,0.0,0.0
11:28:46,692772.0,0.0,0.0
11:28:46,692780.0,0.0,0.0
11:28:46,692893.0,0.0,0.0
11:28:46,693011.0,0.0,0.0
11:28:46,693038.0,0.0,0.0
11:28:46,692940.0,0.0,0.0
11:28:46,692928.0,0.0,0.0
11:28:46,692917.0,0.0,0.0
11:28:46,692896.0,0.0,0.0
11:28:46,692899.0,0.0,0.0
11:28:46,692856.0,0.0,0.0
11:28:46,692853.0,0.0,0.0
11:28:46,692849.0,0.0,0.0
11:28:46,692820.0,0.0,0.0
11:28:46,692844.0,0.0,0.0
11:28:46,692809.0,0.0,0.0
11:28:46,692799.0,0.0,0.0
11:28:46,692762.0,0.0,0.0
11:28:46,692711.0,0.0,0.0
11:28:47,692774.0,0.0,0.0
11:28:47,692761.0,0.0,0.0
11:28:47,692746.0,0.0,0.0
11:28:47,692730.0,0.0,0.0
11:28:47,692678.0,0.0,0.0
11:28:47,692726.0,0.0,0.0
11:28:47,692673.0,0.0,0.0
11:28:47,692678.0,0.0,0.0
11:28:47,692657.0,0.0,0.0
11:28:47,692626.0,0.0,0.0
11:28:47,692641.0,0.0,0.0
11:28:47,692571.0,0.0,0.0
11:28:47,692559.0,0.0,0.0
11:28:47,692551.0,0.0,0.0
11:28:47,692513.0,0.0,0.0
11:28:47,692495.0,0.0,0.0
11:28:47,692475.0,0.0,0.0
11:28:47,692546.0,0.0,0.0
11:28:47,692547.0,0.0,0.0
11:28:47,692509.0,0.0,0.0
11:28:47,692527.0,0.0,0.0
11:28:47,692493.0,0.0,0.0
11:28:47,692528.0,0.0,0.0
11:28:47,692547.0,0.0,0.0
11:28:47,692523.0,0.0,0.0
11:28:47,692539.0,0.0,0.0
11:28:47,692526.0,0.0,0.0
11:28:47,692564.0,0.0,0.0
11:28:47,692609.0,0.0,0.0
11:28:47,692582.0,0.0,0.0
11:28:47,692600.0,0.0,0.0
11:28:47,692598.0,0.0,0.0
11:28:47,692631.0,0.0,0.0
11:28:47,692629.0,0.0,0.0
11:28:47,692551.0,0.0,0.0
11:28:47,692565.0,0.0,0.0
11:28:47,692544.0,0.0,0.0
11:28:47,692558.0,0.0,0.0
11:28:47,692578.0,0.0,0.0
11:28:47,692559.0,0.0,0.0
11:28:47,692559.0,0.0,0.0
11:28:47,692534.0,0.0,0.0
11:28:47,692539.0,0.0,0.0
11:28:47,692531.0,0.0,0.0
11:28:47,692540.0,0.0,0.0
11:28:47,692557.0,0.0,0.0
11:28:47,692511.0,0.0,0.0
11:28:47,692504.0,0.0,0.0
11:28:47,692435.0,0.0,0.0
11:28:47,692350.0,0.0,0.0
11:28:47,692309.0,0.0,0.0
11:28:47,692288.0,0.0,0.0
11:28:47,692293.0,0.0,0.0
11:28:47,692254.0,0.0,0.0
11:28:47,692253.0,0.0,0.0
11:28:47,692286.0,0.0,0.0
11:28:47,692293.0,0.0,0.0
11:28:47,692300.0,0.0,0.0
11:28:47,692283.0,0.0,0.0
11:28:47,692262.0,0.0,0.0
11:28:47,692314.0,0.0,0.0
11:28:47,692291.0,0.0,0.0
11:28:47,692307.0,0.0,0.0
11:28:47,692351.0,0.0,0.0
11:28:47,692328.0,0.0,0.0
11:28:47,692361.0,0.0,0.0
11:28:47,692353.0,0.0,0.0
11:28:47,692375.0,0.0,0.0
11:28:47,692383.0,0.0,0.0
11:28:47,692342.0,0.0,0.0
11:28:47,692341.0,0.0,0.0
11:28:47,692221.0,0.0,0.0
11:28:47,692241.0,0.0,0.0
11:28:47,692377.0,0.0,0.0
11:28:47,692417.0,0.0,0.0
11:28:47,692381.0,0.0,0.0
11:28:47,692285.0,0.0,0.0
11:28:47,692284.0,0.0,0.0
11:28:47,692281.0,0.0,0.0
11:28:47,692247.0,0.0,0.0
11:28:47,692224.0,0.0,0.0
11:28:47,692144.0,0.0,0.0
11:28:47,692177.0,0.0,0.0
11:28:47,692144.0,0.0,0.0
11:28:47,692089.0,0.0,0.0
11:28:47,692084.0,0.0,0.0
11:28:47,692035.0,0.0,0.0
11:28:47,692084.0,0.0,0.0
11:28:47,692044.0,0.0,0.0
11:28:47,691990.0,0.0,0.0
11:28:47,692035.0,0.0,0.0
11:28:47,692003.0,0.0,0.0
11:28:47,692039.0,0.0,0.0
11:28:47,692082.0,0.0,0.0
11:28:47,692085.0,0.0,0.0
11:28:47,692097.0,0.0,0.0
11:28:47,692064.0,0.0,0.0
11:28:47,692065.0,0.0,0.0
11:28:47,692069.0,0.0,0.0
11:28:47,692062.0,0.0,0.0
11:28:47,692104.0,0.0,0.0
11:28:47,692043.0,0.0,0.0
11:28:47,692031.0,0.0,0.0
11:28:47,692007.0,0.0,0.0
11:28:47,691987.0,0.0,0.0
11:28:47,692021.0,0.0,0.0
11:28:47,692000.0,0.0,0.0
11:28:47,691996.0,0.0,0.0
11:28:47,691972.0,0.0,0.0
11:28:47,691965.0,0.0,0.0
11:28:47,691963.0,0.0,0.0
11:28:47,691924.0,0.0,0.0
11:28:47,691942.0,0.0,0.0
11:28:47,691966.0,0.0,0.0
11:28:47,691897.0,0.0,0.0
11:28:47,691928.0,0.0,0.0
11:28:47,691931.0,0.0,0.0
11:28:47,691956.0,0.0,0.0
11:28:47,691957.0,0.0,0.0
11:28:47,691936.0,0.0,0.0
11:28:47,691946.0,0.0,0.0
11:28:47,691882.0,0.0,0.0
11:28:47,691910.0,0.0,0.0
11:28:47,691881.0,0.0,0.0
11:28:47,691861.0,0.0,0.0
11:28:48,691886.0,0.0,0.0
11:28:48,691914.0,0.0,0.0
11:28:48,691977.0,0.0,0.0
11:28:48,691966.0,0.0,0.0
11:28:48,691960.0,0.0,0.0
11:28:48,691984.0,0.0,0.0
11:28:48,691951.0,0.0,0.0
11:28:48,691989.0,0.0,0.0
11:28:48,691974.0,0.0,0.0
11:28:48,691943.0,0.0,0.0
11:28:48,691954.0,0.0,0.0
11:28:48,691907.0,0.0,0.0
11:28:48,691954.0,0.0,0.0
11:28:48,691941.0,0.0,0.0
11:28:48,691937.0,0.0,0.0
11:28:48,691984.0,0.0,0.0
11:28:48,691928.0,0.0,0.0
11:28:48,691976.0,0.0,0.0
11:28:48,691945.0,0.0,0.0
11:28:48,691951.0,0.0,0.0
11:28:48,691983.0,0.0,0.0
11:28:48,691945.0,0.0,0.0
11:28:48,691942.0,0.0,0.0
11:28:48,691947.0,0.0,0.0
11:28:48,691923.0,0.0,0.0
11:28:48,691911.0,0.0,0.0
11:28:48,691906.0,0.0,0.0
11:28:48,691930.0,0.0,0.0
11:28:48,691952.0,0.0,0.0
11:28:48,692031.0,0.0,0.0
11:28:48,692216.0,0.0,0.0
11:28:48,692123.0,0.0,0.0
11:28:48,692021.0,0.0,0.0
11:28:48,691978.0,0.0,0.0
11:28:48,691929.0,0.0,0.0
11:28:48,691970.0,0.0,0.0
11:28:48,691925.0,0.0,0.0
11:28:48,691928.0,0.0,0.0
11:28:48,692022.0,0.0,0.0
11:28:48,692059.0,0.0,0.0
11:28:48,691996.0,0.0,0.0
11:28:48,691903.0,0.0,0.0
11:28:48,691925.0,0.0,0.0
11:28:48,691893.0,0.0,0.0
11:28:48,691831.0,0.0,0.0
11:28:48,691794.0,0.0,0.0
11:28:48,691731.0,0.0,0.0
11:28:48,691739.0,0.0,0.0
11:28:48,691761.0,0.0,0.0
11:28:48,691798.0,0.0,0.0
11:28:48,691795.0,0.0,0.0
11:28:48,691780.0,0.0,0.0
11:28:48,691829.0,0.0,0.0
11:28:48,691841.0,0.0,0.0
11:28:48,691844.0,0.0,0.0
11:28:48,691862.0,0.0,0.0
11:28:48,691826.0,0.0,0.0
11:28:48,691823.0,0.0,0.0
11:28:48,691757.0,0.0,0.0
11:28:48,691754.0,0.0,0.0
11:28:48,691760.0,0.0,0.0
11:28:48,691739.0,0.0,0.0
11:28:48,691741.0,0.0,0.0
11:28:48,691703.0,0.0,0.0
11:28:48,691649.0,0.0,0.0
11:28:48,691679.0,0.0,0.0
11:28:48,691624.0,0.0,0.0
11:28:48,691639.0,0.0,0.0
11:28:48,691631.0,0.0,0.0
11:28:48,691635.0,0.0,0.0
11:28:48,691688.0,0.0,0.0
11:28:48,691671.0,0.0,0.0
11:28:48,691674.0,0.0,0.0
11:28:48,691676.0,0.0,0.0
11:28:48,691655.0,0.0,0.0
11:28:48,691685.0,0.0,0.0
11:28:48,691668.0,0.0,0.0
11:28:48,691709.0,0.0,0.0
11:28:48,691715.0,0.0,0.0
11:28:48,691705.0,0.0,0.0
11:28:48,691706.0,0.0,0.0
11:28:48,691658.0,0.0,0.0
11:28:48,691666.0,0.0,0.0
11:28:48,691643.0,0.0,0.0
11:28:48,691623.0,0.0,0.0
11:28:48,691636.0,0.0,0.0
11:28:48,691629.0,0.0,0.0
11:28:48,691596.0,0.0,0.0
11:28:48,691592.0,0.0,0.0
11:28:48,691602.0,0.0,0.0
11:28:48,691576.0,0.0,0.0
11:28:48,691562.0,0.0,0.0
11:28:48,691599.0,0.0,0.0
11:28:48,691583.0,0.0,0.0
11:28:48,691570.0,0.0,0.0
11:28:48,691604.0,0.0,0.0
11:28:48,691613.0,0.0,0.0
11:28:48,691664.0,0.0,0.0
11:28:48,691638.0,0.0,0.0
11:28:48,691636.0,0.0,0.0
11:28:48,691649.0,0.0,0.0
11:28:48,691620.0,0.0,0.0
11:28:48,691655.0,0.0,0.0
11:28:48,691631.0,0.0,0.0
11:28:48,691626.0,0.0,0.0
11:28:48,691654.0,0.0,0.0
11:28:48,691623.0,0.0,0.0
11:28:48,691651.0,0.0,0.0
11:28:48,691632.0,0.0,0.0
11:28:48,691615.0,0.0,0.0
11:28:48,691634.0,0.0,0.0
11:28:48,691613.0,0.0,0.0
11:28:48,691600.0,0.0,0.0
11:28:48,691558.0,0.0,0.0
11:28:48,691533.0,0.0,0.0
11:28:48,691541.0,0.0,0.0
11:28:48,691488.0,0.0,0.0
11:28:48,691473.0,0.0,0.0
11:28:48,691423.0,0.0,0.0
11:28:48,691406.0,0.0,0.0
11:28:48,691420.0,0.0,0.0
11:28:48,691369.0,0.0,0.0
11:28:48,691364.0,0.0,0.0
11:28:48,691317.0,0.0,0.0
11:28:48,691295.0,0.0,0.0
11:28:49,691290.0,0.0,0.0
11:28:49,691227.0,0.0,0.0
11:28:49,691224.0,0.0,0.0
11:28:49,691171.0,0.0,0.0
11:28:49,691170.0,0.0,0.0
11:28:49,691189.0,0.0,0.0
11:28:49,691114.0,0.0,0.0
11:28:49,691083.0,0.0,0.0
11:28:49,691083.0,0.0,0.0
11:28:49,691173.0,0.0,0.0
11:28:49,691293.0,0.0,0.0
11:28:49,691196.0,0.0,0.0
11:28:49,691140.0,0.0,0.0
11:28:49,691062.0,0.0,0.0
11:28:49,691019.0,0.0,0.0
11:28:49,691018.0,0.0,0.0
11:28:49,690956.0,0.0,0.0
11:28:49,690960.0,0.0,0.0
11:28:49,690963.0,0.0,0.0
11:28:49,690975.0,0.0,0.0
11:28:49,690965.0,0.0,0.0
11:28:49,690931.0,0.0,0.0
11:28:49,690953.0,0.0,0.0
11:28:49,690919.0,0.0,0.0
11:28:49,690911.0,0.0,0.0
11:28:49,690910.0,0.0,0.0
11:28:49,690896.0,0.0,0.0
11:28:49,690898.0,0.0,0.0
11:28:49,690863.0,0.0,0.0
11:28:49,690857.0,0.0,0.0
11:28:49,690849.0,0.0,0.0
11:28:49,690812.0,0.0,0.0
11:28:49,690834.0,0.0,0.0
11:28:49,690806.0,0.0,0.0
11:28:49,690779.0,0.0,0.0
11:28:49,690779.0,0.0,0.0
11:28:49,690738.0,0.0,0.0
11:28:49,690734.0,0.0,0.0
11:28:49,690713.0,0.0,0.0
11:28:49,690712.0,0.0,0.0
11:28:49,690699.0,0.0,0.0
11:28:49,690683.0,0.0,0.0
11:28:49,690697.0,0.0,0.0
11:28:49,690646.0,0.0,0.0
11:28:49,690639.0,0.0,0.0
11:28:49,690670.0,0.0,0.0
11:28:49,690628.0,0.0,0.0
11:28:49,690648.0,0.0,0.0
11:28:49,690609.0,0.0,0.0
11:28:49,690613.0,0.0,0.0
11:28:49,690604.0,0.0,0.0
11:28:49,690554.0,0.0,0.0
11:28:49,690568.0,0.0,0.0
11:28:49,690557.0,0.0,0.0
11:28:49,690554.0,0.0,0.0
11:28:49,690551.0,0.0,0.0
11:28:49,690499.0,0.0,0.0
11:28:49,690481.0,0.0,0.0
11:28:49,690466.0,0.0,0.0
11:28:49,690475.0,0.0,0.0
11:28:49,690473.0,0.0,0.0
11:28:49,690449.0,0.0,0.0
11:28:49,690468.0,0.0,0.0
11:28:49,690418.0,0.0,0.0
11:28:49,690396.0,0.0,0.0
11:28:49,690400.0,0.0,0.0
11:28:49,690376.0,0.0,0.0
11:28:49,690398.0,0.0,0.0
11:28:49,690353.0,0.0,0.0
11:28:49,690328.0,0.0,0.0
11:28:49,690371.0,0.0,0.0
11:28:49,690306.0,0.0,0.0
11:28:49,690310.0,0.0,0.0
11:28:49,690268.0,0.0,0.0
11:28:49,690213.0,0.0,0.0
11:28:49,690198.0,0.0,0.0
11:28:49,690170.0,0.0,0.0
11:28:49,690187.0,0.0,0.0
11:28:49,690131.0,0.0,0.0
11:28:49,690075.0,0.0,0.0
11:28:49,690081.0,0.0,0.0
11:28:49,690028.0,0.0,0.0
11:28:49,690055.0,0.0,0.0
11:28:49,690044.0,0.0,0.0
11:28:49,690051.0,0.0,0.0
11:28:49,690064.0,0.0,0.0
11:28:49,689999.0,0.0,0.0
11:28:49,690048.0,0.0,0.0
11:28:49,690046.0,0.0,0.0
11:28:49,690048.0,0.0,0.0
11:28:49,690059.0,0.0,0.0
11:28:49,690032.0,0.0,0.0
11:28:49,690070.0,0.0,0.0
11:28:49,690053.0,0.0,0.0
11:28:49,690074.0,0.0,0.0
11:28:49,690074.0,0.0,0.0
11:28:49,690058.0,0.0,0.0
11:28:49,690118.0,0.0,0.0
11:28:49,690121.0,0.0,0.0
11:28:49,690111.0,0.0,0.0
11:28:49,690126.0,0.0,0.0
11:28:49,690072.0,0.0,0.0
11:28:49,690077.0,0.0,0.0
11:28:49,690024.0,0.0,0.0
11:28:49,690011.0,0.0,0.0
11:28:49,690004.0,0.0,0.0
11:28:49,689963.0,0.0,0.0
11:28:49,689959.0,0.0,0.0
11:28:49,689910.0,0.0,0.0
11:28:49,689846.0,0.0,0.0
11:28:49,689828.0,0.0,0.0
11:28:49,689905.0,0.0,0.0
11:28:49,690051.0,0.0,0.0
11:28:49,689999.0,0.0,0.0
11:28:49,689941.0,0.0,0.0
11:28:49,689906.0,0.0,0.0
11:28:49,689843.0,0.0,0.0
11:28:49,689841.0,0.0,0.0
11:28:49,689829.0,0.0,0.0
11:28:49,689821.0,0.0,0.0
11:28:49,689824.0,0.0,0.0
11:28:49,689799.0,0.0,0.0
11:28:49,689824.0,0.0,0.0
11:28:49,689806.0,0.0,0.0
11:28:49,689820.0,0.0,0.0
11:28:50,689831.0,0.0,0.0
11:28:50,689787.0,0.0,0.0
11:28:50,689806.0,0.0,0.0
11:28:50,689779.0,0.0,0.0
11:28:50,689755.0,0.0,0.0
11:28:50,689756.0,0.0,0.0
11:28:50,689751.0,0.0,0.0
11:28:50,689777.0,0.0,0.0
11:28:50,689738.0,0.0,0.0
11:28:50,689752.0,0.0,0.0
11:28:50,689762.0,0.0,0.0
11:28:50,689744.0,0.0,0.0
11:28:50,689747.0,0.0,0.0
11:28:50,689694.0,0.0,0.0
11:28:50,689706.0,0.0,0.0
11:28:50,689735.0,0.0,0.0
11:28:50,689724.0,0.0,0.0
11:28:50,689761.0,0.0,0.0
11:28:50,689734.0,0.0,0.0
11:28:50,689721.0,0.0,0.0
11:28:50,689759.0,0.0,0.0
11:28:50,689754.0,0.0,0.0
11:28:50,689776.0,0.0,0.0
11:28:50,689760.0,0.0,0.0
11:28:50,689783.0,0.0,0.0
11:28:50,689769.0,0.0,0.0
11:28:50,689727.0,0.0,0.0
11:28:50,689770.0,0.0,0.0
11:28:50,689747.0,0.0,0.0
11:28:50,689754.0,0.0,0.0
11:28:50,689748.0,0.0,0.0
11:28:50,689728.0,0.0,0.0
11:28:50,689746.0,0.0,0.0
11:28:50,689731.0,0.0,0.0
11:28:50,689721.0,0.0,0.0
11:28:50,689710.0,0.0,0.0
11:28:50,689704.0,0.0,0.0
11:28:50,689737.0,0.0,0.0
11:28:50,689711.0,0.0,0.0
11:28:50,689717.0,0.0,0.0
11:28:50,689700.0,0.0,0.0
11:28:50,689703.0,0.0,0.0
11:28:50,689733.0,0.0,0.0
11:28:50,689691.0,0.0,0.0
11:28:50,689708.0,0.0,0.0
11:28:50,689708.0,0.0,0.0
11:28:50,689650.0,0.0,0.0
11:28:50,689706.0,0.0,0.0
11:28:50,689702.0,0.0,0.0
11:28:50,689701.0,0.0,0.0
11:28:50,689701.0,0.0,0.0
11:28:50,689702.0,0.0,0.0
11:28:50,689700.0,0.0,0.0
11:28:50,689641.0,0.0,0.0
11:28:50,689670.0,0.0,0.0
11:28:50,689688.0,0.0,0.0
11:28:50,689666.0,0.0,0.0
11:28:50,689688.0,0.0,0.0
11:28:50,689658.0,0.0,0.0
11:28:50,689655.0,0.0,0.0
11:28:50,689641.0,0.0,0.0
11:28:50,689649.0,0.0,0.0
11:28:50,689691.0,0.0,0.0
11:28:50,689656.0,0.0,0.0
11:28:50,689671.0,0.0,0.0
11:28:50,689669.0,0.0,0.0
11:28:50,689649.0,0.0,0.0
11:28:50,689656.0,0.0,0.0
11:28:50,689672.0,0.0,0.0
11:28:50,689697.0,0.0,0.0
11:28:50,689698.0,0.0,0.0
