TimeStramp,ECG,SpO2,Respiration
11:16:13,754571.0,0.0,0.0
11:16:13,754584.0,0.0,0.0
11:16:13,754536.0,0.0,0.0
11:16:13,754608.0,0.0,0.0
11:16:13,754552.0,0.0,0.0
11:16:13,754584.0,0.0,0.0
11:16:13,754582.0,0.0,0.0
11:16:13,754521.0,0.0,0.0
11:16:13,754586.0,0.0,0.0
11:16:13,754523.0,0.0,0.0
11:16:13,754564.0,0.0,0.0
11:16:13,754584.0,0.0,0.0
11:16:13,754559.0,0.0,0.0
11:16:13,754633.0,0.0,0.0
11:16:13,754574.0,0.0,0.0
11:16:13,754586.0,0.0,0.0
11:16:13,754574.0,0.0,0.0
11:16:13,754552.0,0.0,0.0
11:16:13,754615.0,0.0,0.0
11:16:13,754504.0,0.0,0.0
11:16:13,754533.0,0.0,0.0
11:16:13,754531.0,0.0,0.0
11:16:13,754508.0,0.0,0.0
11:16:13,754587.0,0.0,0.0
11:16:13,754523.0,0.0,0.0
11:16:13,754554.0,0.0,0.0
11:16:13,754547.0,0.0,0.0
11:16:13,754466.0,0.0,0.0
11:16:13,754511.0,0.0,0.0
11:16:13,754477.0,0.0,0.0
11:16:13,754531.0,0.0,0.0
11:16:13,754513.0,0.0,0.0
11:16:13,754490.0,0.0,0.0
11:16:13,754524.0,0.0,0.0
11:16:13,754375.0,0.0,0.0
11:16:13,754368.0,0.0,0.0
11:16:13,754444.0,0.0,0.0
11:16:13,754591.0,0.0,0.0
11:16:13,754665.0,0.0,0.0
11:16:13,754529.0,0.0,0.0
11:16:13,754499.0,0.0,0.0
11:16:13,754480.0,0.0,0.0
11:16:13,754444.0,0.0,0.0
11:16:13,754511.0,0.0,0.0
11:16:13,754435.0,0.0,0.0
11:16:13,754463.0,0.0,0.0
11:16:13,754468.0,0.0,0.0
11:16:13,754423.0,0.0,0.0
11:16:13,754471.0,0.0,0.0
11:16:13,754386.0,0.0,0.0
11:16:13,754436.0,0.0,0.0
11:16:13,754436.0,0.0,0.0
11:16:13,754372.0,0.0,0.0
11:16:13,754433.0,0.0,0.0
11:16:13,754349.0,0.0,0.0
11:16:13,754375.0,0.0,0.0
11:16:13,754355.0,0.0,0.0
11:16:13,754296.0,0.0,0.0
11:16:13,754375.0,0.0,0.0
11:16:13,754328.0,0.0,0.0
11:16:13,754351.0,0.0,0.0
11:16:13,754351.0,0.0,0.0
11:16:13,754317.0,0.0,0.0
11:16:13,754381.0,0.0,0.0
11:16:13,754277.0,0.0,0.0
11:16:13,754309.0,0.0,0.0
11:16:13,754302.0,0.0,0.0
11:16:13,754277.0,0.0,0.0
11:16:13,754306.0,0.0,0.0
11:16:13,754224.0,0.0,0.0
11:16:13,754299.0,0.0,0.0
11:16:13,754282.0,0.0,0.0
11:16:13,754243.0,0.0,0.0
11:16:13,754303.0,0.0,0.0
11:16:13,754229.0,0.0,0.0
11:16:13,754264.0,0.0,0.0
11:16:13,754263.0,0.0,0.0
11:16:13,754206.0,0.0,0.0
11:16:13,754252.0,0.0,0.0
11:16:13,754214.0,0.0,0.0
11:16:13,754268.0,0.0,0.0
11:16:13,754223.0,0.0,0.0
11:16:13,754188.0,0.0,0.0
11:16:13,754278.0,0.0,0.0
11:16:13,754209.0,0.0,0.0
11:16:13,754286.0,0.0,0.0
11:16:13,754225.0,0.0,0.0
11:16:13,754159.0,0.0,0.0
11:16:13,754209.0,0.0,0.0
11:16:13,754130.0,0.0,0.0
11:16:13,754194.0,0.0,0.0
11:16:13,754184.0,0.0,0.0
11:16:13,754164.0,0.0,0.0
11:16:13,754234.0,0.0,0.0
11:16:13,754143.0,0.0,0.0
11:16:13,754236.0,0.0,0.0
11:16:13,754204.0,0.0,0.0
11:16:13,754153.0,0.0,0.0
11:16:13,754231.0,0.0,0.0
11:16:13,754168.0,0.0,0.0
11:16:13,754169.0,0.0,0.0
11:16:13,754135.0,0.0,0.0
11:16:13,754130.0,0.0,0.0
11:16:13,754219.0,0.0,0.0
11:16:13,754131.0,0.0,0.0
11:16:13,754183.0,0.0,0.0
11:16:13,754176.0,0.0,0.0
11:16:13,754149.0,0.0,0.0
11:16:13,754209.0,0.0,0.0
11:16:13,754162.0,0.0,0.0
11:16:13,754190.0,0.0,0.0
11:16:13,754175.0,0.0,0.0
11:16:13,754168.0,0.0,0.0
11:16:13,754186.0,0.0,0.0
11:16:13,754122.0,0.0,0.0
11:16:13,754173.0,0.0,0.0
11:16:13,754128.0,0.0,0.0
11:16:13,754098.0,0.0,0.0
11:16:13,754182.0,0.0,0.0
11:16:13,754090.0,0.0,0.0
11:16:13,754150.0,0.0,0.0
11:16:13,754114.0,0.0,0.0
11:16:13,754091.0,0.0,0.0
11:16:13,754146.0,0.0,0.0
11:16:14,754081.0,0.0,0.0
11:16:14,754123.0,0.0,0.0
11:16:14,754110.0,0.0,0.0
11:16:14,754064.0,0.0,0.0
11:16:14,754116.0,0.0,0.0
11:16:14,754046.0,0.0,0.0
11:16:14,754082.0,0.0,0.0
11:16:14,754060.0,0.0,0.0
11:16:14,754035.0,0.0,0.0
11:16:14,754095.0,0.0,0.0
11:16:14,754026.0,0.0,0.0
11:16:14,754050.0,0.0,0.0
11:16:14,754015.0,0.0,0.0
11:16:14,753983.0,0.0,0.0
11:16:14,754081.0,0.0,0.0
11:16:14,754026.0,0.0,0.0
11:16:14,754066.0,0.0,0.0
11:16:14,754054.0,0.0,0.0
11:16:14,754014.0,0.0,0.0
11:16:14,754049.0,0.0,0.0
11:16:14,753996.0,0.0,0.0
11:16:14,754039.0,0.0,0.0
11:16:14,754018.0,0.0,0.0
11:16:14,753994.0,0.0,0.0
11:16:14,754048.0,0.0,0.0
11:16:14,753987.0,0.0,0.0
11:16:14,754056.0,0.0,0.0
11:16:14,754015.0,0.0,0.0
11:16:14,753981.0,0.0,0.0
11:16:14,754036.0,0.0,0.0
11:16:14,754016.0,0.0,0.0
11:16:14,754057.0,0.0,0.0
11:16:14,754012.0,0.0,0.0
11:16:14,754014.0,0.0,0.0
11:16:14,754071.0,0.0,0.0
11:16:14,754004.0,0.0,0.0
11:16:14,754049.0,0.0,0.0
11:16:14,754031.0,0.0,0.0
11:16:14,754017.0,0.0,0.0
11:16:14,754043.0,0.0,0.0
11:16:14,753939.0,0.0,0.0
11:16:14,753917.0,0.0,0.0
11:16:14,753917.0,0.0,0.0
11:16:14,754089.0,0.0,0.0
11:16:14,754245.0,0.0,0.0
11:16:14,754113.0,0.0,0.0
11:16:14,754094.0,0.0,0.0
11:16:14,754041.0,0.0,0.0
11:16:14,754023.0,0.0,0.0
11:16:14,754059.0,0.0,0.0
11:16:14,753993.0,0.0,0.0
11:16:14,754025.0,0.0,0.0
11:16:14,754014.0,0.0,0.0
11:16:14,753984.0,0.0,0.0
11:16:14,754029.0,0.0,0.0
11:16:14,753982.0,0.0,0.0
11:16:14,754072.0,0.0,0.0
11:16:14,754044.0,0.0,0.0
11:16:14,754061.0,0.0,0.0
11:16:14,754091.0,0.0,0.0
11:16:14,754031.0,0.0,0.0
11:16:14,754098.0,0.0,0.0
11:16:14,754051.0,0.0,0.0
11:16:14,754052.0,0.0,0.0
11:16:14,754088.0,0.0,0.0
11:16:14,754003.0,0.0,0.0
11:16:14,754039.0,0.0,0.0
11:16:14,754021.0,0.0,0.0
11:16:14,753996.0,0.0,0.0
11:16:14,754044.0,0.0,0.0
11:16:14,754001.0,0.0,0.0
11:16:14,754066.0,0.0,0.0
11:16:14,754021.0,0.0,0.0
11:16:14,754019.0,0.0,0.0
11:16:14,754084.0,0.0,0.0
11:16:14,754034.0,0.0,0.0
11:16:14,754088.0,0.0,0.0
11:16:14,754068.0,0.0,0.0
11:16:14,754073.0,0.0,0.0
11:16:14,754109.0,0.0,0.0
11:16:14,754035.0,0.0,0.0
11:16:14,754079.0,0.0,0.0
11:16:14,754021.0,0.0,0.0
11:16:14,754027.0,0.0,0.0
11:16:14,754088.0,0.0,0.0
11:16:14,754003.0,0.0,0.0
11:16:14,754058.0,0.0,0.0
11:16:14,754072.0,0.0,0.0
11:16:14,754032.0,0.0,0.0
11:16:14,754056.0,0.0,0.0
11:16:14,754018.0,0.0,0.0
11:16:14,754074.0,0.0,0.0
11:16:14,754041.0,0.0,0.0
11:16:14,754041.0,0.0,0.0
11:16:14,754084.0,0.0,0.0
11:16:14,754026.0,0.0,0.0
11:16:14,754090.0,0.0,0.0
11:16:14,754023.0,0.0,0.0
11:16:14,753980.0,0.0,0.0
11:16:14,754039.0,0.0,0.0
11:16:14,753963.0,0.0,0.0
11:16:14,754068.0,0.0,0.0
11:16:14,754026.0,0.0,0.0
11:16:14,753975.0,0.0,0.0
11:16:14,754054.0,0.0,0.0
11:16:14,753997.0,0.0,0.0
11:16:14,754044.0,0.0,0.0
11:16:14,753998.0,0.0,0.0
11:16:14,753997.0,0.0,0.0
11:16:14,754029.0,0.0,0.0
11:16:14,753981.0,0.0,0.0
11:16:14,754063.0,0.0,0.0
11:16:14,754048.0,0.0,0.0
11:16:14,754042.0,0.0,0.0
11:16:14,754086.0,0.0,0.0
11:16:14,754038.0,0.0,0.0
11:16:14,754109.0,0.0,0.0
11:16:14,754056.0,0.0,0.0
11:16:14,754056.0,0.0,0.0
11:16:14,754094.0,0.0,0.0
11:16:14,754050.0,0.0,0.0
11:16:14,754106.0,0.0,0.0
11:16:14,754049.0,0.0,0.0
11:16:14,754050.0,0.0,0.0
11:16:14,754106.0,0.0,0.0
11:16:15,754010.0,0.0,0.0
11:16:15,754086.0,0.0,0.0
11:16:15,754068.0,0.0,0.0
11:16:15,754073.0,0.0,0.0
11:16:15,754104.0,0.0,0.0
11:16:15,754044.0,0.0,0.0
11:16:15,754090.0,0.0,0.0
11:16:15,754068.0,0.0,0.0
11:16:15,754074.0,0.0,0.0
11:16:15,754102.0,0.0,0.0
11:16:15,754035.0,0.0,0.0
11:16:15,754116.0,0.0,0.0
11:16:15,754077.0,0.0,0.0
11:16:15,754056.0,0.0,0.0
11:16:15,754093.0,0.0,0.0
11:16:15,754053.0,0.0,0.0
11:16:15,754108.0,0.0,0.0
11:16:15,754069.0,0.0,0.0
11:16:15,754085.0,0.0,0.0
11:16:15,754127.0,0.0,0.0
11:16:15,754063.0,0.0,0.0
11:16:15,754127.0,0.0,0.0
11:16:15,754089.0,0.0,0.0
11:16:15,754064.0,0.0,0.0
11:16:15,754113.0,0.0,0.0
11:16:15,754050.0,0.0,0.0
11:16:15,754123.0,0.0,0.0
11:16:15,754083.0,0.0,0.0
11:16:15,754090.0,0.0,0.0
11:16:15,754101.0,0.0,0.0
11:16:15,754047.0,0.0,0.0
11:16:15,754102.0,0.0,0.0
11:16:15,754093.0,0.0,0.0
11:16:15,754101.0,0.0,0.0
11:16:15,754146.0,0.0,0.0
11:16:15,754076.0,0.0,0.0
11:16:15,754124.0,0.0,0.0
11:16:15,754059.0,0.0,0.0
11:16:15,754062.0,0.0,0.0
11:16:15,754112.0,0.0,0.0
11:16:15,754070.0,0.0,0.0
11:16:15,754123.0,0.0,0.0
11:16:15,754078.0,0.0,0.0
11:16:15,754019.0,0.0,0.0
11:16:15,754030.0,0.0,0.0
11:16:15,753964.0,0.0,0.0
11:16:15,754214.0,0.0,0.0
11:16:15,754259.0,0.0,0.0
11:16:15,754226.0,0.0,0.0
11:16:15,754173.0,0.0,0.0
11:16:15,754084.0,0.0,0.0
11:16:15,754159.0,0.0,0.0
11:16:15,754119.0,0.0,0.0
11:16:15,754094.0,0.0,0.0
11:16:15,754116.0,0.0,0.0
11:16:15,754050.0,0.0,0.0
11:16:15,754086.0,0.0,0.0
11:16:15,754038.0,0.0,0.0
11:16:15,754015.0,0.0,0.0
11:16:15,754070.0,0.0,0.0
11:16:15,754053.0,0.0,0.0
11:16:15,754089.0,0.0,0.0
11:16:15,754018.0,0.0,0.0
11:16:15,754045.0,0.0,0.0
11:16:15,754098.0,0.0,0.0
11:16:15,754010.0,0.0,0.0
11:16:15,754072.0,0.0,0.0
11:16:15,754018.0,0.0,0.0
11:16:15,754002.0,0.0,0.0
11:16:15,754028.0,0.0,0.0
11:16:15,753984.0,0.0,0.0
11:16:15,754064.0,0.0,0.0
11:16:15,753973.0,0.0,0.0
11:16:15,753964.0,0.0,0.0
11:16:15,754025.0,0.0,0.0
11:16:15,753973.0,0.0,0.0
11:16:15,754020.0,0.0,0.0
11:16:15,753969.0,0.0,0.0
11:16:15,753984.0,0.0,0.0
11:16:15,754045.0,0.0,0.0
11:16:15,753978.0,0.0,0.0
11:16:15,754048.0,0.0,0.0
11:16:15,754009.0,0.0,0.0
11:16:15,754009.0,0.0,0.0
11:16:15,754040.0,0.0,0.0
11:16:15,753956.0,0.0,0.0
11:16:15,754041.0,0.0,0.0
11:16:15,753960.0,0.0,0.0
11:16:15,753959.0,0.0,0.0
11:16:15,754020.0,0.0,0.0
11:16:15,753941.0,0.0,0.0
11:16:15,753981.0,0.0,0.0
11:16:15,753951.0,0.0,0.0
11:16:15,753958.0,0.0,0.0
11:16:15,753959.0,0.0,0.0
11:16:15,753896.0,0.0,0.0
11:16:15,753961.0,0.0,0.0
11:16:15,753902.0,0.0,0.0
11:16:15,753924.0,0.0,0.0
11:16:15,753949.0,0.0,0.0
11:16:15,753869.0,0.0,0.0
11:16:15,753909.0,0.0,0.0
11:16:15,753873.0,0.0,0.0
11:16:15,753868.0,0.0,0.0
11:16:15,753903.0,0.0,0.0
11:16:15,753853.0,0.0,0.0
11:16:15,753903.0,0.0,0.0
11:16:15,753861.0,0.0,0.0
11:16:15,753869.0,0.0,0.0
11:16:15,753899.0,0.0,0.0
11:16:15,753841.0,0.0,0.0
11:16:15,753906.0,0.0,0.0
11:16:15,753842.0,0.0,0.0
11:16:15,753862.0,0.0,0.0
11:16:15,753886.0,0.0,0.0
11:16:15,753832.0,0.0,0.0
11:16:15,753897.0,0.0,0.0
11:16:15,753825.0,0.0,0.0
11:16:15,753816.0,0.0,0.0
11:16:15,753839.0,0.0,0.0
11:16:15,753809.0,0.0,0.0
11:16:15,753884.0,0.0,0.0
11:16:15,753807.0,0.0,0.0
11:16:15,753802.0,0.0,0.0
11:16:15,753803.0,0.0,0.0
11:16:16,753753.0,0.0,0.0
11:16:16,753839.0,0.0,0.0
11:16:16,753784.0,0.0,0.0
11:16:16,753781.0,0.0,0.0
11:16:16,753823.0,0.0,0.0
11:16:16,753756.0,0.0,0.0
11:16:16,753846.0,0.0,0.0
11:16:16,753778.0,0.0,0.0
11:16:16,753767.0,0.0,0.0
11:16:16,753808.0,0.0,0.0
11:16:16,753715.0,0.0,0.0
11:16:16,753804.0,0.0,0.0
11:16:16,753755.0,0.0,0.0
11:16:16,753761.0,0.0,0.0
11:16:16,753784.0,0.0,0.0
11:16:16,753711.0,0.0,0.0
11:16:16,753768.0,0.0,0.0
11:16:16,753715.0,0.0,0.0
11:16:16,753718.0,0.0,0.0
11:16:16,753724.0,0.0,0.0
11:16:16,753660.0,0.0,0.0
11:16:16,753728.0,0.0,0.0
11:16:16,753696.0,0.0,0.0
11:16:16,753699.0,0.0,0.0
11:16:16,753714.0,0.0,0.0
11:16:16,753663.0,0.0,0.0
11:16:16,753754.0,0.0,0.0
11:16:16,753694.0,0.0,0.0
11:16:16,753668.0,0.0,0.0
11:16:16,753696.0,0.0,0.0
11:16:16,753616.0,0.0,0.0
11:16:16,753709.0,0.0,0.0
11:16:16,753643.0,0.0,0.0
11:16:16,753649.0,0.0,0.0
11:16:16,753704.0,0.0,0.0
11:16:16,753633.0,0.0,0.0
11:16:16,753705.0,0.0,0.0
11:16:16,753654.0,0.0,0.0
11:16:16,753662.0,0.0,0.0
11:16:16,753662.0,0.0,0.0
11:16:16,753620.0,0.0,0.0
11:16:16,753674.0,0.0,0.0
11:16:16,753613.0,0.0,0.0
11:16:16,753584.0,0.0,0.0
11:16:16,753504.0,0.0,0.0
11:16:16,753460.0,0.0,0.0
11:16:16,753690.0,0.0,0.0
11:16:16,753778.0,0.0,0.0
11:16:16,753773.0,0.0,0.0
11:16:16,753704.0,0.0,0.0
11:16:16,753624.0,0.0,0.0
11:16:16,753696.0,0.0,0.0
11:16:16,753632.0,0.0,0.0
11:16:16,753643.0,0.0,0.0
11:16:16,753641.0,0.0,0.0
11:16:16,753605.0,0.0,0.0
11:16:16,753685.0,0.0,0.0
11:16:16,753622.0,0.0,0.0
11:16:16,753600.0,0.0,0.0
11:16:16,753605.0,0.0,0.0
11:16:16,753558.0,0.0,0.0
11:16:16,753657.0,0.0,0.0
11:16:16,753585.0,0.0,0.0
11:16:16,753593.0,0.0,0.0
11:16:16,753605.0,0.0,0.0
11:16:16,753533.0,0.0,0.0
11:16:16,753608.0,0.0,0.0
11:16:16,753534.0,0.0,0.0
11:16:16,753545.0,0.0,0.0
11:16:16,753575.0,0.0,0.0
11:16:16,753518.0,0.0,0.0
11:16:16,753580.0,0.0,0.0
11:16:16,753528.0,0.0,0.0
11:16:16,753554.0,0.0,0.0
11:16:16,753578.0,0.0,0.0
11:16:16,753536.0,0.0,0.0
11:16:16,753628.0,0.0,0.0
11:16:16,753575.0,0.0,0.0
11:16:16,753598.0,0.0,0.0
11:16:16,753618.0,0.0,0.0
11:16:16,753556.0,0.0,0.0
11:16:16,753659.0,0.0,0.0
11:16:16,753589.0,0.0,0.0
11:16:16,753585.0,0.0,0.0
11:16:16,753619.0,0.0,0.0
11:16:16,753537.0,0.0,0.0
11:16:16,753601.0,0.0,0.0
11:16:16,753551.0,0.0,0.0
11:16:16,753577.0,0.0,0.0
11:16:16,753582.0,0.0,0.0
11:16:16,753521.0,0.0,0.0
11:16:16,753569.0,0.0,0.0
11:16:16,753529.0,0.0,0.0
11:16:16,753581.0,0.0,0.0
11:16:16,753600.0,0.0,0.0
11:16:16,753570.0,0.0,0.0
11:16:16,753617.0,0.0,0.0
11:16:16,753533.0,0.0,0.0
11:16:16,753524.0,0.0,0.0
11:16:16,753530.0,0.0,0.0
11:16:16,753505.0,0.0,0.0
11:16:16,753584.0,0.0,0.0
11:16:16,753506.0,0.0,0.0
11:16:16,753523.0,0.0,0.0
11:16:16,753541.0,0.0,0.0
11:16:16,753499.0,0.0,0.0
11:16:16,753569.0,0.0,0.0
11:16:16,753494.0,0.0,0.0
11:16:16,753541.0,0.0,0.0
11:16:16,753559.0,0.0,0.0
11:16:16,753483.0,0.0,0.0
11:16:16,753541.0,0.0,0.0
11:16:16,753493.0,0.0,0.0
11:16:16,753511.0,0.0,0.0
11:16:16,753516.0,0.0,0.0
11:16:16,753448.0,0.0,0.0
11:16:16,753529.0,0.0,0.0
11:16:16,753473.0,0.0,0.0
11:16:16,753494.0,0.0,0.0
11:16:16,753515.0,0.0,0.0
11:16:16,753454.0,0.0,0.0
11:16:16,753554.0,0.0,0.0
11:16:16,753493.0,0.0,0.0
11:16:16,753484.0,0.0,0.0
11:16:16,753496.0,0.0,0.0
11:16:17,753434.0,0.0,0.0
11:16:17,753531.0,0.0,0.0
11:16:17,753471.0,0.0,0.0
11:16:17,753475.0,0.0,0.0
11:16:17,753468.0,0.0,0.0
11:16:17,753392.0,0.0,0.0
11:16:17,753467.0,0.0,0.0
11:16:17,753425.0,0.0,0.0
11:16:17,753423.0,0.0,0.0
11:16:17,753434.0,0.0,0.0
11:16:17,753369.0,0.0,0.0
11:16:17,753446.0,0.0,0.0
11:16:17,753342.0,0.0,0.0
11:16:17,753374.0,0.0,0.0
11:16:17,753399.0,0.0,0.0
11:16:17,753370.0,0.0,0.0
11:16:17,753407.0,0.0,0.0
11:16:17,753344.0,0.0,0.0
11:16:17,753376.0,0.0,0.0
11:16:17,753398.0,0.0,0.0
11:16:17,753353.0,0.0,0.0
11:16:17,753423.0,0.0,0.0
11:16:17,753336.0,0.0,0.0
11:16:17,753359.0,0.0,0.0
11:16:17,753383.0,0.0,0.0
11:16:17,753328.0,0.0,0.0
11:16:17,753374.0,0.0,0.0
11:16:17,753326.0,0.0,0.0
11:16:17,753347.0,0.0,0.0
11:16:17,753359.0,0.0,0.0
11:16:17,753325.0,0.0,0.0
11:16:17,753385.0,0.0,0.0
11:16:17,753321.0,0.0,0.0
11:16:17,753354.0,0.0,0.0
11:16:17,753368.0,0.0,0.0
11:16:17,753319.0,0.0,0.0
11:16:17,753370.0,0.0,0.0
11:16:17,753291.0,0.0,0.0
11:16:17,753301.0,0.0,0.0
11:16:17,753333.0,0.0,0.0
11:16:17,753270.0,0.0,0.0
11:16:17,753268.0,0.0,0.0
11:16:17,753194.0,0.0,0.0
11:16:17,753362.0,0.0,0.0
11:16:17,753479.0,0.0,0.0
11:16:17,753408.0,0.0,0.0
11:16:17,753411.0,0.0,0.0
11:16:17,753315.0,0.0,0.0
11:16:17,753316.0,0.0,0.0
11:16:17,753306.0,0.0,0.0
11:16:17,753285.0,0.0,0.0
11:16:17,753371.0,0.0,0.0
11:16:17,753292.0,0.0,0.0
11:16:17,753334.0,0.0,0.0
11:16:17,753326.0,0.0,0.0
11:16:17,753254.0,0.0,0.0
11:16:17,753322.0,0.0,0.0
11:16:17,753246.0,0.0,0.0
11:16:17,753310.0,0.0,0.0
11:16:17,753318.0,0.0,0.0
11:16:17,753250.0,0.0,0.0
11:16:17,753307.0,0.0,0.0
11:16:17,753243.0,0.0,0.0
11:16:17,753271.0,0.0,0.0
11:16:17,753274.0,0.0,0.0
11:16:17,753226.0,0.0,0.0
11:16:17,753293.0,0.0,0.0
11:16:17,753221.0,0.0,0.0
11:16:17,753268.0,0.0,0.0
11:16:17,753252.0,0.0,0.0
11:16:17,753226.0,0.0,0.0
11:16:17,753296.0,0.0,0.0
11:16:17,753258.0,0.0,0.0
11:16:17,753316.0,0.0,0.0
11:16:17,753295.0,0.0,0.0
11:16:17,753237.0,0.0,0.0
11:16:17,753326.0,0.0,0.0
11:16:17,753273.0,0.0,0.0
11:16:17,753328.0,0.0,0.0
11:16:17,753336.0,0.0,0.0
11:16:17,753268.0,0.0,0.0
11:16:17,753335.0,0.0,0.0
11:16:17,753283.0,0.0,0.0
11:16:17,753314.0,0.0,0.0
11:16:17,753308.0,0.0,0.0
11:16:17,753266.0,0.0,0.0
11:16:17,753306.0,0.0,0.0
11:16:17,753268.0,0.0,0.0
11:16:17,753314.0,0.0,0.0
11:16:17,753340.0,0.0,0.0
11:16:17,753279.0,0.0,0.0
11:16:17,753354.0,0.0,0.0
11:16:17,753289.0,0.0,0.0
11:16:17,753296.0,0.0,0.0
11:16:17,753284.0,0.0,0.0
11:16:17,753243.0,0.0,0.0
11:16:17,753294.0,0.0,0.0
11:16:17,753226.0,0.0,0.0
11:16:17,753306.0,0.0,0.0
11:16:17,753279.0,0.0,0.0
11:16:17,753230.0,0.0,0.0
11:16:17,753276.0,0.0,0.0
11:16:17,753219.0,0.0,0.0
11:16:17,753263.0,0.0,0.0
11:16:17,753282.0,0.0,0.0
11:16:17,753225.0,0.0,0.0
11:16:17,753294.0,0.0,0.0
11:16:17,753209.0,0.0,0.0
11:16:17,753226.0,0.0,0.0
11:16:17,753224.0,0.0,0.0
11:16:17,753195.0,0.0,0.0
11:16:17,753247.0,0.0,0.0
11:16:17,753199.0,0.0,0.0
11:16:17,753224.0,0.0,0.0
11:16:17,753221.0,0.0,0.0
11:16:17,753226.0,0.0,0.0
11:16:17,753267.0,0.0,0.0
11:16:17,753200.0,0.0,0.0
11:16:17,753235.0,0.0,0.0
11:16:17,753217.0,0.0,0.0
11:16:17,753185.0,0.0,0.0
11:16:17,753263.0,0.0,0.0
11:16:17,753199.0,0.0,0.0
11:16:17,753229.0,0.0,0.0
11:16:17,753220.0,0.0,0.0
11:16:18,753163.0,0.0,0.0
11:16:18,753256.0,0.0,0.0
11:16:18,753181.0,0.0,0.0
11:16:18,753224.0,0.0,0.0
11:16:18,753204.0,0.0,0.0
11:16:18,753188.0,0.0,0.0
11:16:18,753256.0,0.0,0.0
11:16:18,753168.0,0.0,0.0
11:16:18,753200.0,0.0,0.0
11:16:18,753203.0,0.0,0.0
11:16:18,753187.0,0.0,0.0
11:16:18,753241.0,0.0,0.0
11:16:18,753158.0,0.0,0.0
11:16:18,753209.0,0.0,0.0
11:16:18,753185.0,0.0,0.0
11:16:18,753157.0,0.0,0.0
11:16:18,753231.0,0.0,0.0
11:16:18,753171.0,0.0,0.0
11:16:18,753209.0,0.0,0.0
11:16:18,753215.0,0.0,0.0
11:16:18,753174.0,0.0,0.0
11:16:18,753234.0,0.0,0.0
11:16:18,753167.0,0.0,0.0
11:16:18,753249.0,0.0,0.0
11:16:18,753223.0,0.0,0.0
11:16:18,753165.0,0.0,0.0
11:16:18,753208.0,0.0,0.0
11:16:18,753154.0,0.0,0.0
11:16:18,753199.0,0.0,0.0
11:16:18,753181.0,0.0,0.0
11:16:18,753113.0,0.0,0.0
11:16:18,753151.0,0.0,0.0
11:16:18,753114.0,0.0,0.0
11:16:18,753103.0,0.0,0.0
11:16:18,753029.0,0.0,0.0
11:16:18,753031.0,0.0,0.0
11:16:18,753286.0,0.0,0.0
11:16:18,753369.0,0.0,0.0
11:16:18,753373.0,0.0,0.0
11:16:18,753289.0,0.0,0.0
11:16:18,753218.0,0.0,0.0
11:16:18,753248.0,0.0,0.0
11:16:18,753186.0,0.0,0.0
11:16:18,753219.0,0.0,0.0
11:16:18,753231.0,0.0,0.0
11:16:18,753186.0,0.0,0.0
11:16:18,753229.0,0.0,0.0
11:16:18,753155.0,0.0,0.0
11:16:18,753203.0,0.0,0.0
11:16:18,753201.0,0.0,0.0
11:16:18,753202.0,0.0,0.0
11:16:18,753300.0,0.0,0.0
11:16:18,753209.0,0.0,0.0
11:16:18,753229.0,0.0,0.0
11:16:18,753243.0,0.0,0.0
11:16:18,753196.0,0.0,0.0
11:16:18,753234.0,0.0,0.0
11:16:18,753185.0,0.0,0.0
11:16:18,753221.0,0.0,0.0
11:16:18,753202.0,0.0,0.0
11:16:18,753158.0,0.0,0.0
11:16:18,753245.0,0.0,0.0
11:16:18,753172.0,0.0,0.0
11:16:18,753208.0,0.0,0.0
11:16:18,753216.0,0.0,0.0
11:16:18,753176.0,0.0,0.0
11:16:18,753223.0,0.0,0.0
11:16:18,753154.0,0.0,0.0
11:16:18,753227.0,0.0,0.0
11:16:18,753276.0,0.0,0.0
11:16:18,753268.0,0.0,0.0
11:16:18,753293.0,0.0,0.0
11:16:18,753208.0,0.0,0.0
11:16:18,753258.0,0.0,0.0
11:16:18,753235.0,0.0,0.0
11:16:18,753209.0,0.0,0.0
11:16:18,753231.0,0.0,0.0
11:16:18,753158.0,0.0,0.0
11:16:18,753230.0,0.0,0.0
11:16:18,753231.0,0.0,0.0
11:16:18,753192.0,0.0,0.0
11:16:18,753253.0,0.0,0.0
11:16:18,753188.0,0.0,0.0
11:16:18,753229.0,0.0,0.0
11:16:18,753266.0,0.0,0.0
11:16:18,753226.0,0.0,0.0
11:16:18,753281.0,0.0,0.0
11:16:18,753210.0,0.0,0.0
11:16:18,753255.0,0.0,0.0
11:16:18,753241.0,0.0,0.0
11:16:18,753215.0,0.0,0.0
11:16:18,753273.0,0.0,0.0
11:16:18,753214.0,0.0,0.0
11:16:18,753286.0,0.0,0.0
11:16:18,753263.0,0.0,0.0
11:16:18,753239.0,0.0,0.0
11:16:18,753306.0,0.0,0.0
11:16:18,753210.0,0.0,0.0
11:16:18,753262.0,0.0,0.0
11:16:18,753281.0,0.0,0.0
11:16:18,753241.0,0.0,0.0
11:16:18,753282.0,0.0,0.0
11:16:18,753255.0,0.0,0.0
11:16:18,753286.0,0.0,0.0
11:16:18,753269.0,0.0,0.0
11:16:18,753251.0,0.0,0.0
11:16:18,753332.0,0.0,0.0
11:16:18,753289.0,0.0,0.0
11:16:18,753348.0,0.0,0.0
11:16:18,753339.0,0.0,0.0
11:16:18,753313.0,0.0,0.0
11:16:18,753386.0,0.0,0.0
11:16:18,753349.0,0.0,0.0
11:16:18,753388.0,0.0,0.0
11:16:18,753381.0,0.0,0.0
11:16:18,753338.0,0.0,0.0
11:16:18,753390.0,0.0,0.0
11:16:18,753368.0,0.0,0.0
11:16:18,753404.0,0.0,0.0
11:16:18,753390.0,0.0,0.0
11:16:18,753372.0,0.0,0.0
11:16:18,753428.0,0.0,0.0
11:16:18,753355.0,0.0,0.0
11:16:18,753414.0,0.0,0.0
11:16:18,753414.0,0.0,0.0
11:16:19,753388.0,0.0,0.0
11:16:19,753458.0,0.0,0.0
11:16:19,753373.0,0.0,0.0
11:16:19,753404.0,0.0,0.0
11:16:19,753406.0,0.0,0.0
11:16:19,753403.0,0.0,0.0
11:16:19,753476.0,0.0,0.0
11:16:19,753433.0,0.0,0.0
11:16:19,753499.0,0.0,0.0
11:16:19,753520.0,0.0,0.0
11:16:19,753478.0,0.0,0.0
11:16:19,753530.0,0.0,0.0
11:16:19,753478.0,0.0,0.0
11:16:19,753507.0,0.0,0.0
11:16:19,753506.0,0.0,0.0
11:16:19,753524.0,0.0,0.0
11:16:19,753548.0,0.0,0.0
11:16:19,753262.0,0.0,0.0
11:16:19,753494.0,0.0,0.0
11:16:19,753493.0,0.0,0.0
11:16:19,753427.0,0.0,0.0
11:16:19,753474.0,0.0,0.0
11:16:19,753457.0,0.0,0.0
11:16:19,753679.0,0.0,0.0
11:16:19,753774.0,0.0,0.0
11:16:19,753678.0,0.0,0.0
11:16:19,753699.0,0.0,0.0
11:16:19,753596.0,0.0,0.0
11:16:19,753639.0,0.0,0.0
11:16:19,753622.0,0.0,0.0
11:16:19,753625.0,0.0,0.0
11:16:19,753676.0,0.0,0.0
11:16:19,753580.0,0.0,0.0
11:16:19,753628.0,0.0,0.0
11:16:19,753589.0,0.0,0.0
11:16:19,753572.0,0.0,0.0
11:16:19,753630.0,0.0,0.0
11:16:19,753566.0,0.0,0.0
11:16:19,753632.0,0.0,0.0
11:16:19,753635.0,0.0,0.0
11:16:19,753616.0,0.0,0.0
11:16:19,753716.0,0.0,0.0
11:16:19,753628.0,0.0,0.0
11:16:19,753679.0,0.0,0.0
11:16:19,753624.0,0.0,0.0
11:16:19,753611.0,0.0,0.0
11:16:19,753673.0,0.0,0.0
11:16:19,753608.0,0.0,0.0
11:16:19,753666.0,0.0,0.0
11:16:19,753628.0,0.0,0.0
11:16:19,753584.0,0.0,0.0
11:16:19,753648.0,0.0,0.0
11:16:19,753583.0,0.0,0.0
11:16:19,753664.0,0.0,0.0
11:16:19,753636.0,0.0,0.0
11:16:19,753653.0,0.0,0.0
11:16:19,753742.0,0.0,0.0
11:16:19,753670.0,0.0,0.0
11:16:19,753735.0,0.0,0.0
11:16:19,753749.0,0.0,0.0
11:16:19,753728.0,0.0,0.0
11:16:19,753726.0,0.0,0.0
11:16:19,753665.0,0.0,0.0
11:16:19,753743.0,0.0,0.0
11:16:19,753716.0,0.0,0.0
11:16:19,753680.0,0.0,0.0
11:16:19,753746.0,0.0,0.0
11:16:19,753692.0,0.0,0.0
11:16:19,753726.0,0.0,0.0
11:16:19,753725.0,0.0,0.0
11:16:19,753736.0,0.0,0.0
11:16:19,753794.0,0.0,0.0
11:16:19,753721.0,0.0,0.0
11:16:19,753780.0,0.0,0.0
11:16:19,753758.0,0.0,0.0
11:16:19,753741.0,0.0,0.0
11:16:19,753817.0,0.0,0.0
11:16:19,753741.0,0.0,0.0
11:16:19,753779.0,0.0,0.0
11:16:19,753796.0,0.0,0.0
11:16:19,753771.0,0.0,0.0
11:16:19,753823.0,0.0,0.0
11:16:19,753740.0,0.0,0.0
11:16:19,753822.0,0.0,0.0
11:16:19,753816.0,0.0,0.0
11:16:19,753804.0,0.0,0.0
11:16:19,753839.0,0.0,0.0
11:16:19,753751.0,0.0,0.0
11:16:19,753826.0,0.0,0.0
11:16:19,753807.0,0.0,0.0
11:16:19,753810.0,0.0,0.0
11:16:19,753871.0,0.0,0.0
11:16:19,753798.0,0.0,0.0
11:16:19,753866.0,0.0,0.0
11:16:19,753861.0,0.0,0.0
11:16:19,753834.0,0.0,0.0
11:16:19,753905.0,0.0,0.0
11:16:19,753826.0,0.0,0.0
11:16:19,753876.0,0.0,0.0
11:16:19,753844.0,0.0,0.0
11:16:19,753854.0,0.0,0.0
11:16:19,753919.0,0.0,0.0
11:16:19,753862.0,0.0,0.0
11:16:19,753928.0,0.0,0.0
11:16:19,753916.0,0.0,0.0
11:16:19,753891.0,0.0,0.0
11:16:19,753936.0,0.0,0.0
11:16:19,753868.0,0.0,0.0
11:16:19,753927.0,0.0,0.0
11:16:19,753887.0,0.0,0.0
11:16:19,753856.0,0.0,0.0
11:16:19,753922.0,0.0,0.0
11:16:19,753906.0,0.0,0.0
11:16:19,753961.0,0.0,0.0
11:16:19,753927.0,0.0,0.0
11:16:19,753916.0,0.0,0.0
11:16:19,753967.0,0.0,0.0
11:16:19,753927.0,0.0,0.0
11:16:19,753968.0,0.0,0.0
11:16:19,753907.0,0.0,0.0
11:16:19,753894.0,0.0,0.0
11:16:19,753948.0,0.0,0.0
11:16:19,753869.0,0.0,0.0
11:16:19,753910.0,0.0,0.0
11:16:19,753904.0,0.0,0.0
11:16:20,753934.0,0.0,0.0
11:16:20,753957.0,0.0,0.0
11:16:20,753867.0,0.0,0.0
11:16:20,753918.0,0.0,0.0
11:16:20,753874.0,0.0,0.0
11:16:20,753842.0,0.0,0.0
11:16:20,753820.0,0.0,0.0
11:16:20,753792.0,0.0,0.0
11:16:20,754009.0,0.0,0.0
11:16:20,754039.0,0.0,0.0
11:16:20,753967.0,0.0,0.0
11:16:20,753943.0,0.0,0.0
11:16:20,753862.0,0.0,0.0
11:16:20,753919.0,0.0,0.0
11:16:20,753871.0,0.0,0.0
11:16:20,753887.0,0.0,0.0
11:16:20,753945.0,0.0,0.0
11:16:20,753828.0,0.0,0.0
11:16:20,753876.0,0.0,0.0
11:16:20,753866.0,0.0,0.0
11:16:20,753849.0,0.0,0.0
11:16:20,753903.0,0.0,0.0
11:16:20,753839.0,0.0,0.0
11:16:20,753873.0,0.0,0.0
11:16:20,753838.0,0.0,0.0
11:16:20,753819.0,0.0,0.0
11:16:20,753871.0,0.0,0.0
11:16:20,753814.0,0.0,0.0
11:16:20,753841.0,0.0,0.0
11:16:20,753799.0,0.0,0.0
11:16:20,753762.0,0.0,0.0
11:16:20,753826.0,0.0,0.0
11:16:20,753756.0,0.0,0.0
11:16:20,753813.0,0.0,0.0
11:16:20,753773.0,0.0,0.0
11:16:20,753782.0,0.0,0.0
11:16:20,753812.0,0.0,0.0
11:16:20,753758.0,0.0,0.0
11:16:20,753825.0,0.0,0.0
11:16:20,753785.0,0.0,0.0
11:16:20,753779.0,0.0,0.0
11:16:20,753853.0,0.0,0.0
11:16:20,753804.0,0.0,0.0
11:16:20,753869.0,0.0,0.0
11:16:20,753844.0,0.0,0.0
11:16:20,753820.0,0.0,0.0
11:16:20,753853.0,0.0,0.0
11:16:20,753784.0,0.0,0.0
11:16:20,753828.0,0.0,0.0
11:16:20,753788.0,0.0,0.0
11:16:20,753773.0,0.0,0.0
11:16:20,753802.0,0.0,0.0
11:16:20,753734.0,0.0,0.0
11:16:20,753796.0,0.0,0.0
11:16:20,753749.0,0.0,0.0
11:16:20,753764.0,0.0,0.0
11:16:20,753796.0,0.0,0.0
11:16:20,753714.0,0.0,0.0
11:16:20,753754.0,0.0,0.0
11:16:20,753719.0,0.0,0.0
11:16:20,753718.0,0.0,0.0
11:16:20,753775.0,0.0,0.0
11:16:20,753668.0,0.0,0.0
11:16:20,753706.0,0.0,0.0
11:16:20,753662.0,0.0,0.0
11:16:20,753648.0,0.0,0.0
11:16:20,753694.0,0.0,0.0
11:16:20,753651.0,0.0,0.0
11:16:20,753719.0,0.0,0.0
11:16:20,753689.0,0.0,0.0
11:16:20,753674.0,0.0,0.0
11:16:20,753682.0,0.0,0.0
11:16:20,753644.0,0.0,0.0
11:16:20,753739.0,0.0,0.0
11:16:20,753709.0,0.0,0.0
11:16:20,753693.0,0.0,0.0
11:16:20,753745.0,0.0,0.0
11:16:20,753646.0,0.0,0.0
11:16:20,753736.0,0.0,0.0
11:16:20,753705.0,0.0,0.0
11:16:20,753721.0,0.0,0.0
11:16:20,753750.0,0.0,0.0
11:16:20,753678.0,0.0,0.0
11:16:20,753722.0,0.0,0.0
11:16:20,753694.0,0.0,0.0
11:16:20,753666.0,0.0,0.0
11:16:20,753696.0,0.0,0.0
11:16:20,753661.0,0.0,0.0
11:16:20,753726.0,0.0,0.0
11:16:20,753656.0,0.0,0.0
11:16:20,753651.0,0.0,0.0
11:16:20,753702.0,0.0,0.0
11:16:20,753647.0,0.0,0.0
11:16:20,753692.0,0.0,0.0
11:16:20,753659.0,0.0,0.0
11:16:20,753668.0,0.0,0.0
11:16:20,753681.0,0.0,0.0
11:16:20,753606.0,0.0,0.0
11:16:20,753673.0,0.0,0.0
11:16:20,753633.0,0.0,0.0
11:16:20,753638.0,0.0,0.0
11:16:20,753671.0,0.0,0.0
11:16:20,753591.0,0.0,0.0
11:16:20,753652.0,0.0,0.0
11:16:20,753629.0,0.0,0.0
11:16:20,753631.0,0.0,0.0
11:16:20,753664.0,0.0,0.0
11:16:20,753613.0,0.0,0.0
11:16:20,753692.0,0.0,0.0
11:16:20,753624.0,0.0,0.0
11:16:20,753597.0,0.0,0.0
11:16:20,753619.0,0.0,0.0
11:16:20,753576.0,0.0,0.0
11:16:20,753630.0,0.0,0.0
11:16:20,753579.0,0.0,0.0
11:16:20,753548.0,0.0,0.0
11:16:20,753519.0,0.0,0.0
11:16:20,753495.0,0.0,0.0
11:16:20,753704.0,0.0,0.0
11:16:20,753737.0,0.0,0.0
11:16:20,753704.0,0.0,0.0
11:16:20,753675.0,0.0,0.0
11:16:20,753541.0,0.0,0.0
11:16:20,753591.0,0.0,0.0
11:16:20,753532.0,0.0,0.0
11:16:21,753520.0,0.0,0.0
11:16:21,753546.0,0.0,0.0
11:16:21,753489.0,0.0,0.0
11:16:21,753531.0,0.0,0.0
11:16:21,753492.0,0.0,0.0
11:16:21,753466.0,0.0,0.0
11:16:21,753505.0,0.0,0.0
11:16:21,753465.0,0.0,0.0
11:16:21,753529.0,0.0,0.0
11:16:21,753469.0,0.0,0.0
11:16:21,753478.0,0.0,0.0
11:16:21,753528.0,0.0,0.0
11:16:21,753412.0,0.0,0.0
11:16:21,753453.0,0.0,0.0
11:16:21,753420.0,0.0,0.0
11:16:21,753426.0,0.0,0.0
11:16:21,753419.0,0.0,0.0
11:16:21,753371.0,0.0,0.0
11:16:21,753437.0,0.0,0.0
11:16:21,753378.0,0.0,0.0
11:16:21,753384.0,0.0,0.0
11:16:21,753393.0,0.0,0.0
11:16:21,753354.0,0.0,0.0
11:16:21,753420.0,0.0,0.0
11:16:21,753370.0,0.0,0.0
11:16:21,753371.0,0.0,0.0
11:16:21,753401.0,0.0,0.0
11:16:21,753359.0,0.0,0.0
11:16:21,753415.0,0.0,0.0
11:16:21,753358.0,0.0,0.0
11:16:21,753352.0,0.0,0.0
11:16:21,753393.0,0.0,0.0
11:16:21,753319.0,0.0,0.0
11:16:21,753349.0,0.0,0.0
11:16:21,753301.0,0.0,0.0
11:16:21,753337.0,0.0,0.0
11:16:21,753363.0,0.0,0.0
11:16:21,753307.0,0.0,0.0
11:16:21,753347.0,0.0,0.0
11:16:21,753288.0,0.0,0.0
11:16:21,753314.0,0.0,0.0
11:16:21,753333.0,0.0,0.0
11:16:21,753256.0,0.0,0.0
11:16:21,753316.0,0.0,0.0
11:16:21,753257.0,0.0,0.0
11:16:21,753262.0,0.0,0.0
11:16:21,753287.0,0.0,0.0
11:16:21,753211.0,0.0,0.0
11:16:21,753259.0,0.0,0.0
11:16:21,753253.0,0.0,0.0
11:16:21,753279.0,0.0,0.0
11:16:21,753309.0,0.0,0.0
11:16:21,753241.0,0.0,0.0
11:16:21,753319.0,0.0,0.0
11:16:21,753283.0,0.0,0.0
11:16:21,753269.0,0.0,0.0
11:16:21,753294.0,0.0,0.0
11:16:21,753251.0,0.0,0.0
11:16:21,753295.0,0.0,0.0
11:16:21,753224.0,0.0,0.0
11:16:21,753235.0,0.0,0.0
11:16:21,753265.0,0.0,0.0
11:16:21,753190.0,0.0,0.0
11:16:21,753266.0,0.0,0.0
11:16:21,753209.0,0.0,0.0
11:16:21,753232.0,0.0,0.0
11:16:21,753278.0,0.0,0.0
11:16:21,753209.0,0.0,0.0
11:16:21,753268.0,0.0,0.0
11:16:21,753213.0,0.0,0.0
11:16:21,753205.0,0.0,0.0
11:16:21,753214.0,0.0,0.0
11:16:21,753181.0,0.0,0.0
11:16:21,753259.0,0.0,0.0
11:16:21,753194.0,0.0,0.0
11:16:21,753198.0,0.0,0.0
11:16:21,753244.0,0.0,0.0
11:16:21,753171.0,0.0,0.0
11:16:21,753213.0,0.0,0.0
11:16:21,753149.0,0.0,0.0
11:16:21,753161.0,0.0,0.0
11:16:21,753172.0,0.0,0.0
11:16:21,753122.0,0.0,0.0
11:16:21,753196.0,0.0,0.0
11:16:21,753155.0,0.0,0.0
11:16:21,753163.0,0.0,0.0
11:16:21,753163.0,0.0,0.0
11:16:21,753127.0,0.0,0.0
11:16:21,753209.0,0.0,0.0
11:16:21,753127.0,0.0,0.0
11:16:21,753156.0,0.0,0.0
11:16:21,753215.0,0.0,0.0
11:16:21,753138.0,0.0,0.0
11:16:21,753183.0,0.0,0.0
11:16:21,753146.0,0.0,0.0
11:16:21,753153.0,0.0,0.0
11:16:21,753196.0,0.0,0.0
11:16:21,753120.0,0.0,0.0
11:16:21,753149.0,0.0,0.0
11:16:21,753115.0,0.0,0.0
11:16:21,753146.0,0.0,0.0
11:16:21,753149.0,0.0,0.0
11:16:21,753081.0,0.0,0.0
11:16:21,753145.0,0.0,0.0
11:16:21,753121.0,0.0,0.0
11:16:21,753073.0,0.0,0.0
11:16:21,753038.0,0.0,0.0
11:16:21,752994.0,0.0,0.0
11:16:21,753184.0,0.0,0.0
11:16:21,753237.0,0.0,0.0
11:16:21,753251.0,0.0,0.0
11:16:21,753176.0,0.0,0.0
11:16:21,753101.0,0.0,0.0
11:16:21,753154.0,0.0,0.0
11:16:21,753112.0,0.0,0.0
11:16:21,753103.0,0.0,0.0
11:16:21,753104.0,0.0,0.0
11:16:21,753037.0,0.0,0.0
11:16:21,753068.0,0.0,0.0
11:16:21,753025.0,0.0,0.0
11:16:21,753037.0,0.0,0.0
11:16:21,753078.0,0.0,0.0
11:16:21,753038.0,0.0,0.0
11:16:21,753097.0,0.0,0.0
11:16:21,753029.0,0.0,0.0
11:16:22,753046.0,0.0,0.0
11:16:22,753057.0,0.0,0.0
11:16:22,752995.0,0.0,0.0
11:16:22,753044.0,0.0,0.0
11:16:22,753005.0,0.0,0.0
11:16:22,752991.0,0.0,0.0
11:16:22,753011.0,0.0,0.0
11:16:22,752951.0,0.0,0.0
11:16:22,753041.0,0.0,0.0
11:16:22,752974.0,0.0,0.0
11:16:22,752969.0,0.0,0.0
11:16:22,753026.0,0.0,0.0
11:16:22,752969.0,0.0,0.0
11:16:22,753011.0,0.0,0.0
11:16:22,752978.0,0.0,0.0
11:16:22,752978.0,0.0,0.0
11:16:22,753014.0,0.0,0.0
11:16:22,752969.0,0.0,0.0
11:16:22,753031.0,0.0,0.0
11:16:22,752973.0,0.0,0.0
11:16:22,752992.0,0.0,0.0
11:16:22,753026.0,0.0,0.0
11:16:22,752939.0,0.0,0.0
11:16:22,752998.0,0.0,0.0
11:16:22,752936.0,0.0,0.0
11:16:22,752961.0,0.0,0.0
11:16:22,752989.0,0.0,0.0
11:16:22,752909.0,0.0,0.0
11:16:22,752974.0,0.0,0.0
11:16:22,752909.0,0.0,0.0
11:16:22,752958.0,0.0,0.0
11:16:22,752980.0,0.0,0.0
11:16:22,752878.0,0.0,0.0
11:16:22,752959.0,0.0,0.0
11:16:22,752908.0,0.0,0.0
11:16:22,752909.0,0.0,0.0
11:16:22,752913.0,0.0,0.0
11:16:22,752838.0,0.0,0.0
11:16:22,752923.0,0.0,0.0
11:16:22,752899.0,0.0,0.0
11:16:22,752943.0,0.0,0.0
11:16:22,752961.0,0.0,0.0
11:16:22,752874.0,0.0,0.0
11:16:22,752940.0,0.0,0.0
11:16:22,752890.0,0.0,0.0
11:16:22,752902.0,0.0,0.0
11:16:22,752924.0,0.0,0.0
11:16:22,752880.0,0.0,0.0
11:16:22,752918.0,0.0,0.0
11:16:22,752874.0,0.0,0.0
11:16:22,752873.0,0.0,0.0
11:16:22,752879.0,0.0,0.0
11:16:22,752815.0,0.0,0.0
11:16:22,752897.0,0.0,0.0
11:16:22,752823.0,0.0,0.0
11:16:22,752854.0,0.0,0.0
11:16:22,752904.0,0.0,0.0
11:16:22,752809.0,0.0,0.0
11:16:22,752883.0,0.0,0.0
11:16:22,752840.0,0.0,0.0
11:16:22,752844.0,0.0,0.0
11:16:22,752867.0,0.0,0.0
11:16:22,752823.0,0.0,0.0
11:16:22,752899.0,0.0,0.0
11:16:22,752815.0,0.0,0.0
11:16:22,752838.0,0.0,0.0
11:16:22,752859.0,0.0,0.0
11:16:22,752803.0,0.0,0.0
11:16:22,752879.0,0.0,0.0
11:16:22,752806.0,0.0,0.0
11:16:22,752839.0,0.0,0.0
11:16:22,752867.0,0.0,0.0
11:16:22,752816.0,0.0,0.0
11:16:22,752872.0,0.0,0.0
11:16:22,752799.0,0.0,0.0
11:16:22,752834.0,0.0,0.0
11:16:22,752835.0,0.0,0.0
11:16:22,752754.0,0.0,0.0
11:16:22,752821.0,0.0,0.0
11:16:22,752762.0,0.0,0.0
11:16:22,752787.0,0.0,0.0
11:16:22,752794.0,0.0,0.0
11:16:22,752740.0,0.0,0.0
11:16:22,752794.0,0.0,0.0
11:16:22,752733.0,0.0,0.0
11:16:22,752779.0,0.0,0.0
11:16:22,752802.0,0.0,0.0
11:16:22,752736.0,0.0,0.0
11:16:22,752774.0,0.0,0.0
11:16:22,752739.0,0.0,0.0
11:16:22,752776.0,0.0,0.0
11:16:22,752794.0,0.0,0.0
11:16:22,752754.0,0.0,0.0
11:16:22,752806.0,0.0,0.0
11:16:22,752746.0,0.0,0.0
11:16:22,752751.0,0.0,0.0
11:16:22,752793.0,0.0,0.0
11:16:22,752700.0,0.0,0.0
11:16:22,752765.0,0.0,0.0
11:16:22,752689.0,0.0,0.0
11:16:22,752713.0,0.0,0.0
11:16:22,752715.0,0.0,0.0
11:16:22,752586.0,0.0,0.0
11:16:22,752673.0,0.0,0.0
11:16:22,752763.0,0.0,0.0
11:16:22,752890.0,0.0,0.0
11:16:22,752851.0,0.0,0.0
11:16:22,752733.0,0.0,0.0
11:16:22,752767.0,0.0,0.0
11:16:22,752704.0,0.0,0.0
11:16:22,752743.0,0.0,0.0
11:16:22,752771.0,0.0,0.0
11:16:22,752705.0,0.0,0.0
11:16:22,752765.0,0.0,0.0
11:16:22,752681.0,0.0,0.0
11:16:22,752702.0,0.0,0.0
11:16:22,752706.0,0.0,0.0
11:16:22,752669.0,0.0,0.0
11:16:22,752753.0,0.0,0.0
11:16:22,752695.0,0.0,0.0
11:16:22,752697.0,0.0,0.0
11:16:22,752687.0,0.0,0.0
11:16:22,752632.0,0.0,0.0
11:16:22,752684.0,0.0,0.0
11:16:22,752606.0,0.0,0.0
11:16:23,752645.0,0.0,0.0
11:16:23,752654.0,0.0,0.0
11:16:23,752608.0,0.0,0.0
11:16:23,752648.0,0.0,0.0
11:16:23,752597.0,0.0,0.0
11:16:23,752653.0,0.0,0.0
11:16:23,752641.0,0.0,0.0
11:16:23,752595.0,0.0,0.0
11:16:23,752686.0,0.0,0.0
11:16:23,752638.0,0.0,0.0
11:16:23,752660.0,0.0,0.0
11:16:23,752658.0,0.0,0.0
11:16:23,752636.0,0.0,0.0
11:16:23,752727.0,0.0,0.0
11:16:23,752678.0,0.0,0.0
11:16:23,752679.0,0.0,0.0
11:16:23,752703.0,0.0,0.0
11:16:23,752653.0,0.0,0.0
11:16:23,752678.0,0.0,0.0
11:16:23,752609.0,0.0,0.0
11:16:23,752652.0,0.0,0.0
11:16:23,752656.0,0.0,0.0
11:16:23,752591.0,0.0,0.0
11:16:23,752659.0,0.0,0.0
11:16:23,752619.0,0.0,0.0
11:16:23,752643.0,0.0,0.0
11:16:23,752656.0,0.0,0.0
11:16:23,752603.0,0.0,0.0
11:16:23,752686.0,0.0,0.0
11:16:23,752633.0,0.0,0.0
11:16:23,752669.0,0.0,0.0
11:16:23,752644.0,0.0,0.0
11:16:23,752607.0,0.0,0.0
11:16:23,752634.0,0.0,0.0
11:16:23,752568.0,0.0,0.0
11:16:23,752624.0,0.0,0.0
11:16:23,752626.0,0.0,0.0
11:16:23,752544.0,0.0,0.0
11:16:23,752629.0,0.0,0.0
11:16:23,752559.0,0.0,0.0
11:16:23,752590.0,0.0,0.0
11:16:23,752616.0,0.0,0.0
11:16:23,752554.0,0.0,0.0
11:16:23,752632.0,0.0,0.0
11:16:23,752589.0,0.0,0.0
11:16:23,752613.0,0.0,0.0
11:16:23,752645.0,0.0,0.0
11:16:23,752566.0,0.0,0.0
11:16:23,752615.0,0.0,0.0
11:16:23,752532.0,0.0,0.0
11:16:23,752585.0,0.0,0.0
11:16:23,752587.0,0.0,0.0
11:16:23,752554.0,0.0,0.0
11:16:23,752623.0,0.0,0.0
11:16:23,752552.0,0.0,0.0
11:16:23,752568.0,0.0,0.0
11:16:23,752579.0,0.0,0.0
11:16:23,752570.0,0.0,0.0
11:16:23,752604.0,0.0,0.0
11:16:23,752547.0,0.0,0.0
11:16:23,752591.0,0.0,0.0
11:16:23,752581.0,0.0,0.0
11:16:23,752521.0,0.0,0.0
11:16:23,752575.0,0.0,0.0
11:16:23,752488.0,0.0,0.0
11:16:23,752543.0,0.0,0.0
11:16:23,752541.0,0.0,0.0
11:16:23,752483.0,0.0,0.0
11:16:23,752569.0,0.0,0.0
11:16:23,752501.0,0.0,0.0
11:16:23,752519.0,0.0,0.0
11:16:23,752516.0,0.0,0.0
11:16:23,752481.0,0.0,0.0
11:16:23,752554.0,0.0,0.0
11:16:23,752495.0,0.0,0.0
11:16:23,752524.0,0.0,0.0
11:16:23,752525.0,0.0,0.0
11:16:23,752473.0,0.0,0.0
11:16:23,752510.0,0.0,0.0
11:16:23,752454.0,0.0,0.0
11:16:23,752499.0,0.0,0.0
11:16:23,752456.0,0.0,0.0
11:16:23,752419.0,0.0,0.0
11:16:23,752521.0,0.0,0.0
11:16:23,752443.0,0.0,0.0
11:16:23,752454.0,0.0,0.0
11:16:23,752492.0,0.0,0.0
11:16:23,752439.0,0.0,0.0
11:16:23,752509.0,0.0,0.0
11:16:23,752441.0,0.0,0.0
11:16:23,752461.0,0.0,0.0
11:16:23,752480.0,0.0,0.0
11:16:23,752473.0,0.0,0.0
11:16:23,752517.0,0.0,0.0
11:16:23,752423.0,0.0,0.0
11:16:23,752449.0,0.0,0.0
11:16:23,752454.0,0.0,0.0
11:16:23,752438.0,0.0,0.0
11:16:23,752496.0,0.0,0.0
11:16:23,752441.0,0.0,0.0
11:16:23,752458.0,0.0,0.0
11:16:23,752474.0,0.0,0.0
11:16:23,752403.0,0.0,0.0
11:16:23,752401.0,0.0,0.0
11:16:23,752316.0,0.0,0.0
11:16:23,752437.0,0.0,0.0
11:16:23,752608.0,0.0,0.0
11:16:23,752581.0,0.0,0.0
11:16:23,752571.0,0.0,0.0
11:16:23,752450.0,0.0,0.0
11:16:23,752464.0,0.0,0.0
11:16:23,752448.0,0.0,0.0
11:16:23,752424.0,0.0,0.0
11:16:23,752469.0,0.0,0.0
11:16:23,752378.0,0.0,0.0
11:16:23,752404.0,0.0,0.0
11:16:23,752410.0,0.0,0.0
11:16:23,752370.0,0.0,0.0
11:16:23,752466.0,0.0,0.0
11:16:23,752389.0,0.0,0.0
11:16:23,752409.0,0.0,0.0
11:16:23,752400.0,0.0,0.0
11:16:23,752359.0,0.0,0.0
11:16:23,752438.0,0.0,0.0
11:16:23,752359.0,0.0,0.0
11:16:24,752396.0,0.0,0.0
11:16:24,752386.0,0.0,0.0
11:16:24,752336.0,0.0,0.0
11:16:24,752409.0,0.0,0.0
11:16:24,752329.0,0.0,0.0
11:16:24,752370.0,0.0,0.0
11:16:24,752350.0,0.0,0.0
11:16:24,752316.0,0.0,0.0
11:16:24,752389.0,0.0,0.0
11:16:24,752355.0,0.0,0.0
11:16:24,752409.0,0.0,0.0
11:16:24,752390.0,0.0,0.0
11:16:24,752373.0,0.0,0.0
11:16:24,752424.0,0.0,0.0
11:16:24,752369.0,0.0,0.0
11:16:24,752413.0,0.0,0.0
11:16:24,752401.0,0.0,0.0
11:16:24,752344.0,0.0,0.0
11:16:24,752431.0,0.0,0.0
11:16:24,752368.0,0.0,0.0
11:16:24,752389.0,0.0,0.0
11:16:24,752384.0,0.0,0.0
11:16:24,752350.0,0.0,0.0
11:16:24,752394.0,0.0,0.0
11:16:24,752348.0,0.0,0.0
11:16:24,752388.0,0.0,0.0
11:16:24,752389.0,0.0,0.0
11:16:24,752374.0,0.0,0.0
11:16:24,752409.0,0.0,0.0
11:16:24,752332.0,0.0,0.0
11:16:24,752392.0,0.0,0.0
11:16:24,752386.0,0.0,0.0
11:16:24,752330.0,0.0,0.0
11:16:24,752382.0,0.0,0.0
11:16:24,752311.0,0.0,0.0
11:16:24,752351.0,0.0,0.0
11:16:24,752331.0,0.0,0.0
11:16:24,752311.0,0.0,0.0
11:16:24,752383.0,0.0,0.0
11:16:24,752296.0,0.0,0.0
11:16:24,752355.0,0.0,0.0
11:16:24,752333.0,0.0,0.0
11:16:24,752307.0,0.0,0.0
11:16:24,752366.0,0.0,0.0
11:16:24,752280.0,0.0,0.0
11:16:24,752314.0,0.0,0.0
11:16:24,752314.0,0.0,0.0
11:16:24,752285.0,0.0,0.0
11:16:24,752371.0,0.0,0.0
11:16:24,752294.0,0.0,0.0
11:16:24,752322.0,0.0,0.0
11:16:24,752309.0,0.0,0.0
11:16:24,752268.0,0.0,0.0
11:16:24,752324.0,0.0,0.0
11:16:24,752284.0,0.0,0.0
11:16:24,752319.0,0.0,0.0
11:16:24,752315.0,0.0,0.0
11:16:24,752276.0,0.0,0.0
11:16:24,752326.0,0.0,0.0
11:16:24,752248.0,0.0,0.0
11:16:24,752298.0,0.0,0.0
11:16:24,752312.0,0.0,0.0
11:16:24,752279.0,0.0,0.0
11:16:24,752313.0,0.0,0.0
11:16:24,752258.0,0.0,0.0
11:16:24,752332.0,0.0,0.0
11:16:24,752329.0,0.0,0.0
11:16:24,752282.0,0.0,0.0
11:16:24,752346.0,0.0,0.0
11:16:24,752256.0,0.0,0.0
11:16:24,752311.0,0.0,0.0
11:16:24,752304.0,0.0,0.0
11:16:24,752256.0,0.0,0.0
11:16:24,752343.0,0.0,0.0
11:16:24,752255.0,0.0,0.0
11:16:24,752319.0,0.0,0.0
11:16:24,752284.0,0.0,0.0
11:16:24,752269.0,0.0,0.0
11:16:24,752344.0,0.0,0.0
11:16:24,752283.0,0.0,0.0
11:16:24,752315.0,0.0,0.0
11:16:24,752326.0,0.0,0.0
11:16:24,752302.0,0.0,0.0
11:16:24,752353.0,0.0,0.0
11:16:24,752282.0,0.0,0.0
11:16:24,752325.0,0.0,0.0
11:16:24,752319.0,0.0,0.0
11:16:24,752288.0,0.0,0.0
11:16:24,752348.0,0.0,0.0
11:16:24,752316.0,0.0,0.0
11:16:24,752346.0,0.0,0.0
11:16:24,752319.0,0.0,0.0
11:16:24,752286.0,0.0,0.0
11:16:24,752379.0,0.0,0.0
11:16:24,752346.0,0.0,0.0
11:16:24,752351.0,0.0,0.0
11:16:24,752326.0,0.0,0.0
11:16:24,752299.0,0.0,0.0
11:16:24,752376.0,0.0,0.0
11:16:24,752307.0,0.0,0.0
11:16:24,752366.0,0.0,0.0
11:16:24,752358.0,0.0,0.0
11:16:24,752330.0,0.0,0.0
11:16:24,752393.0,0.0,0.0
11:16:24,752268.0,0.0,0.0
11:16:24,752240.0,0.0,0.0
11:16:24,752239.0,0.0,0.0
11:16:24,752369.0,0.0,0.0
11:16:24,752525.0,0.0,0.0
11:16:24,752430.0,0.0,0.0
11:16:24,752404.0,0.0,0.0
11:16:24,752357.0,0.0,0.0
11:16:24,752323.0,0.0,0.0
11:16:24,752383.0,0.0,0.0
11:16:24,752328.0,0.0,0.0
11:16:24,752367.0,0.0,0.0
11:16:24,752334.0,0.0,0.0
11:16:24,752294.0,0.0,0.0
11:16:24,752345.0,0.0,0.0
11:16:24,752281.0,0.0,0.0
11:16:24,752356.0,0.0,0.0
11:16:24,752318.0,0.0,0.0
11:16:24,752293.0,0.0,0.0
11:16:24,752354.0,0.0,0.0
11:16:24,752296.0,0.0,0.0
11:16:25,752353.0,0.0,0.0
11:16:25,752320.0,0.0,0.0
11:16:25,752298.0,0.0,0.0
11:16:25,752339.0,0.0,0.0
11:16:25,752284.0,0.0,0.0
11:16:25,752298.0,0.0,0.0
11:16:25,752259.0,0.0,0.0
11:16:25,752254.0,0.0,0.0
11:16:25,752288.0,0.0,0.0
11:16:25,752221.0,0.0,0.0
11:16:25,752299.0,0.0,0.0
11:16:25,752271.0,0.0,0.0
11:16:25,752278.0,0.0,0.0
11:16:25,752333.0,0.0,0.0
11:16:25,752296.0,0.0,0.0
11:16:25,752338.0,0.0,0.0
11:16:25,752299.0,0.0,0.0
11:16:25,752301.0,0.0,0.0
11:16:25,752386.0,0.0,0.0
11:16:25,752311.0,0.0,0.0
11:16:25,752339.0,0.0,0.0
11:16:25,752329.0,0.0,0.0
11:16:25,752299.0,0.0,0.0
11:16:25,752364.0,0.0,0.0
11:16:25,752287.0,0.0,0.0
11:16:25,752344.0,0.0,0.0
11:16:25,752323.0,0.0,0.0
11:16:25,752288.0,0.0,0.0
11:16:25,752372.0,0.0,0.0
11:16:25,752303.0,0.0,0.0
11:16:25,752362.0,0.0,0.0
11:16:25,752357.0,0.0,0.0
11:16:25,752340.0,0.0,0.0
11:16:25,752343.0,0.0,0.0
11:16:25,752253.0,0.0,0.0
11:16:25,752370.0,0.0,0.0
11:16:25,752349.0,0.0,0.0
11:16:25,752303.0,0.0,0.0
11:16:25,752334.0,0.0,0.0
11:16:25,752298.0,0.0,0.0
11:16:25,752349.0,0.0,0.0
11:16:25,752361.0,0.0,0.0
11:16:25,752364.0,0.0,0.0
11:16:25,752409.0,0.0,0.0
11:16:25,752340.0,0.0,0.0
11:16:25,752407.0,0.0,0.0
11:16:25,752375.0,0.0,0.0
11:16:25,752341.0,0.0,0.0
11:16:25,752404.0,0.0,0.0
11:16:25,752373.0,0.0,0.0
11:16:25,752449.0,0.0,0.0
11:16:25,752421.0,0.0,0.0
11:16:25,752413.0,0.0,0.0
11:16:25,752450.0,0.0,0.0
11:16:25,752361.0,0.0,0.0
11:16:25,752465.0,0.0,0.0
11:16:25,752471.0,0.0,0.0
11:16:25,752428.0,0.0,0.0
11:16:25,752494.0,0.0,0.0
11:16:25,752433.0,0.0,0.0
11:16:25,752478.0,0.0,0.0
11:16:25,752456.0,0.0,0.0
11:16:25,752444.0,0.0,0.0
11:16:25,752496.0,0.0,0.0
11:16:25,752438.0,0.0,0.0
11:16:25,752499.0,0.0,0.0
11:16:25,752506.0,0.0,0.0
11:16:25,752486.0,0.0,0.0
11:16:25,752543.0,0.0,0.0
11:16:25,752505.0,0.0,0.0
11:16:25,752526.0,0.0,0.0
11:16:25,752502.0,0.0,0.0
11:16:25,752498.0,0.0,0.0
11:16:25,752536.0,0.0,0.0
11:16:25,752511.0,0.0,0.0
11:16:25,752619.0,0.0,0.0
11:16:25,752567.0,0.0,0.0
11:16:25,752532.0,0.0,0.0
11:16:25,752579.0,0.0,0.0
11:16:25,752524.0,0.0,0.0
11:16:25,752593.0,0.0,0.0
11:16:25,752564.0,0.0,0.0
11:16:25,752566.0,0.0,0.0
11:16:25,752610.0,0.0,0.0
11:16:25,752536.0,0.0,0.0
11:16:25,752607.0,0.0,0.0
11:16:25,752553.0,0.0,0.0
11:16:25,752551.0,0.0,0.0
11:16:25,752636.0,0.0,0.0
11:16:25,752561.0,0.0,0.0
11:16:25,752599.0,0.0,0.0
11:16:25,752613.0,0.0,0.0
11:16:25,752627.0,0.0,0.0
11:16:25,752659.0,0.0,0.0
11:16:25,752598.0,0.0,0.0
11:16:25,752656.0,0.0,0.0
11:16:25,752614.0,0.0,0.0
11:16:25,752608.0,0.0,0.0
11:16:25,752683.0,0.0,0.0
11:16:25,752579.0,0.0,0.0
11:16:25,752643.0,0.0,0.0
11:16:25,752614.0,0.0,0.0
11:16:25,752618.0,0.0,0.0
11:16:25,752620.0,0.0,0.0
11:16:25,752492.0,0.0,0.0
11:16:25,752524.0,0.0,0.0
11:16:25,752594.0,0.0,0.0
11:16:25,752743.0,0.0,0.0
11:16:25,752794.0,0.0,0.0
11:16:25,752674.0,0.0,0.0
11:16:25,752691.0,0.0,0.0
11:16:25,752629.0,0.0,0.0
11:16:25,752630.0,0.0,0.0
11:16:25,752686.0,0.0,0.0
11:16:25,752634.0,0.0,0.0
11:16:25,752671.0,0.0,0.0
11:16:25,752648.0,0.0,0.0
11:16:25,752625.0,0.0,0.0
11:16:25,752654.0,0.0,0.0
11:16:25,752599.0,0.0,0.0
11:16:25,752667.0,0.0,0.0
11:16:25,752629.0,0.0,0.0
11:16:25,752657.0,0.0,0.0
11:16:25,752683.0,0.0,0.0
11:16:25,752593.0,0.0,0.0
11:16:26,752666.0,0.0,0.0
11:16:26,752605.0,0.0,0.0
11:16:26,752598.0,0.0,0.0
11:16:26,752676.0,0.0,0.0
11:16:26,752584.0,0.0,0.0
11:16:26,752616.0,0.0,0.0
11:16:26,752597.0,0.0,0.0
11:16:26,752604.0,0.0,0.0
11:16:26,752627.0,0.0,0.0
11:16:26,752594.0,0.0,0.0
11:16:26,752665.0,0.0,0.0
11:16:26,752630.0,0.0,0.0
11:16:26,752629.0,0.0,0.0
11:16:26,752684.0,0.0,0.0
11:16:26,752610.0,0.0,0.0
11:16:26,752666.0,0.0,0.0
11:16:26,752618.0,0.0,0.0
11:16:26,752625.0,0.0,0.0
11:16:26,752671.0,0.0,0.0
11:16:26,752603.0,0.0,0.0
11:16:26,752644.0,0.0,0.0
11:16:26,752602.0,0.0,0.0
11:16:26,752601.0,0.0,0.0
11:16:26,752641.0,0.0,0.0
11:16:26,752561.0,0.0,0.0
11:16:26,752611.0,0.0,0.0
11:16:26,752589.0,0.0,0.0
11:16:26,752586.0,0.0,0.0
11:16:26,752617.0,0.0,0.0
11:16:26,752557.0,0.0,0.0
11:16:26,752654.0,0.0,0.0
11:16:26,752611.0,0.0,0.0
11:16:26,752602.0,0.0,0.0
11:16:26,752669.0,0.0,0.0
11:16:26,752604.0,0.0,0.0
11:16:26,752661.0,0.0,0.0
11:16:26,752622.0,0.0,0.0
11:16:26,752601.0,0.0,0.0
11:16:26,752657.0,0.0,0.0
11:16:26,752612.0,0.0,0.0
11:16:26,752663.0,0.0,0.0
11:16:26,752618.0,0.0,0.0
11:16:26,752603.0,0.0,0.0
11:16:26,752658.0,0.0,0.0
11:16:26,752611.0,0.0,0.0
11:16:26,752651.0,0.0,0.0
11:16:26,752624.0,0.0,0.0
11:16:26,752618.0,0.0,0.0
11:16:26,752677.0,0.0,0.0
11:16:26,752621.0,0.0,0.0
11:16:26,752654.0,0.0,0.0
11:16:26,752628.0,0.0,0.0
11:16:26,752630.0,0.0,0.0
11:16:26,752681.0,0.0,0.0
11:16:26,752631.0,0.0,0.0
11:16:26,752700.0,0.0,0.0
11:16:26,752632.0,0.0,0.0
11:16:26,752643.0,0.0,0.0
11:16:26,752693.0,0.0,0.0
11:16:26,752636.0,0.0,0.0
11:16:26,752693.0,0.0,0.0
11:16:26,752656.0,0.0,0.0
11:16:26,752641.0,0.0,0.0
11:16:26,752677.0,0.0,0.0
11:16:26,752640.0,0.0,0.0
11:16:26,752699.0,0.0,0.0
11:16:26,752652.0,0.0,0.0
11:16:26,752628.0,0.0,0.0
11:16:26,752688.0,0.0,0.0
11:16:26,752627.0,0.0,0.0
11:16:26,752689.0,0.0,0.0
11:16:26,752624.0,0.0,0.0
11:16:26,752636.0,0.0,0.0
11:16:26,752678.0,0.0,0.0
11:16:26,752623.0,0.0,0.0
11:16:26,752676.0,0.0,0.0
11:16:26,752630.0,0.0,0.0
11:16:26,752652.0,0.0,0.0
11:16:26,752704.0,0.0,0.0
11:16:26,752631.0,0.0,0.0
11:16:26,752690.0,0.0,0.0
11:16:26,752616.0,0.0,0.0
11:16:26,752641.0,0.0,0.0
11:16:26,752678.0,0.0,0.0
11:16:26,752605.0,0.0,0.0
11:16:26,752670.0,0.0,0.0
11:16:26,752589.0,0.0,0.0
11:16:26,752586.0,0.0,0.0
11:16:26,752681.0,0.0,0.0
11:16:26,752587.0,0.0,0.0
11:16:26,752672.0,0.0,0.0
11:16:26,752639.0,0.0,0.0
11:16:26,752638.0,0.0,0.0
11:16:26,752677.0,0.0,0.0
11:16:26,752621.0,0.0,0.0
11:16:26,752682.0,0.0,0.0
11:16:26,752616.0,0.0,0.0
11:16:26,752620.0,0.0,0.0
11:16:26,752674.0,0.0,0.0
11:16:26,752577.0,0.0,0.0
11:16:26,752607.0,0.0,0.0
11:16:26,752533.0,0.0,0.0
11:16:26,752479.0,0.0,0.0
11:16:26,752609.0,0.0,0.0
11:16:26,752695.0,0.0,0.0
11:16:26,752803.0,0.0,0.0
11:16:26,752691.0,0.0,0.0
11:16:26,752615.0,0.0,0.0
11:16:26,752639.0,0.0,0.0
11:16:26,752555.0,0.0,0.0
11:16:26,752636.0,0.0,0.0
11:16:26,752587.0,0.0,0.0
11:16:26,752590.0,0.0,0.0
11:16:26,752630.0,0.0,0.0
11:16:26,752533.0,0.0,0.0
11:16:26,752588.0,0.0,0.0
11:16:26,752549.0,0.0,0.0
11:16:26,752546.0,0.0,0.0
11:16:26,752585.0,0.0,0.0
11:16:26,752537.0,0.0,0.0
11:16:26,752587.0,0.0,0.0
11:16:26,752528.0,0.0,0.0
11:16:26,752524.0,0.0,0.0
11:16:26,752567.0,0.0,0.0
11:16:27,752502.0,0.0,0.0
11:16:27,752537.0,0.0,0.0
11:16:27,752517.0,0.0,0.0
11:16:27,752546.0,0.0,0.0
11:16:27,752553.0,0.0,0.0
11:16:27,752464.0,0.0,0.0
11:16:27,752537.0,0.0,0.0
11:16:27,752492.0,0.0,0.0
11:16:27,752454.0,0.0,0.0
11:16:27,752474.0,0.0,0.0
11:16:27,752406.0,0.0,0.0
11:16:27,752488.0,0.0,0.0
11:16:27,752457.0,0.0,0.0
11:16:27,752441.0,0.0,0.0
11:16:27,752491.0,0.0,0.0
11:16:27,752458.0,0.0,0.0
11:16:27,752521.0,0.0,0.0
11:16:27,752463.0,0.0,0.0
11:16:27,752484.0,0.0,0.0
11:16:27,752476.0,0.0,0.0
11:16:27,752413.0,0.0,0.0
11:16:27,752499.0,0.0,0.0
11:16:27,752421.0,0.0,0.0
11:16:27,752413.0,0.0,0.0
11:16:27,752431.0,0.0,0.0
11:16:27,752379.0,0.0,0.0
11:16:27,752496.0,0.0,0.0
11:16:27,752443.0,0.0,0.0
11:16:27,752427.0,0.0,0.0
11:16:27,752450.0,0.0,0.0
11:16:27,752402.0,0.0,0.0
11:16:27,752459.0,0.0,0.0
11:16:27,752375.0,0.0,0.0
11:16:27,752397.0,0.0,0.0
11:16:27,752436.0,0.0,0.0
11:16:27,752385.0,0.0,0.0
11:16:27,752448.0,0.0,0.0
11:16:27,752371.0,0.0,0.0
11:16:27,752418.0,0.0,0.0
11:16:27,752451.0,0.0,0.0
11:16:27,752380.0,0.0,0.0
11:16:27,752433.0,0.0,0.0
11:16:27,752352.0,0.0,0.0
11:16:27,752363.0,0.0,0.0
11:16:27,752394.0,0.0,0.0
11:16:27,752364.0,0.0,0.0
11:16:27,752444.0,0.0,0.0
11:16:27,752371.0,0.0,0.0
11:16:27,752392.0,0.0,0.0
11:16:27,752421.0,0.0,0.0
11:16:27,752340.0,0.0,0.0
11:16:27,752408.0,0.0,0.0
11:16:27,752366.0,0.0,0.0
11:16:27,752380.0,0.0,0.0
11:16:27,752403.0,0.0,0.0
11:16:27,752321.0,0.0,0.0
11:16:27,752382.0,0.0,0.0
11:16:27,752368.0,0.0,0.0
11:16:27,752390.0,0.0,0.0
11:16:27,752418.0,0.0,0.0
11:16:27,752350.0,0.0,0.0
11:16:27,752399.0,0.0,0.0
11:16:27,752366.0,0.0,0.0
11:16:27,752366.0,0.0,0.0
11:16:27,752383.0,0.0,0.0
11:16:27,752318.0,0.0,0.0
11:16:27,752384.0,0.0,0.0
11:16:27,752317.0,0.0,0.0
11:16:27,752329.0,0.0,0.0
11:16:27,752381.0,0.0,0.0
11:16:27,752306.0,0.0,0.0
11:16:27,752353.0,0.0,0.0
11:16:27,752303.0,0.0,0.0
11:16:27,752297.0,0.0,0.0
11:16:27,752347.0,0.0,0.0
11:16:27,752285.0,0.0,0.0
11:16:27,752347.0,0.0,0.0
11:16:27,752274.0,0.0,0.0
11:16:27,752286.0,0.0,0.0
11:16:27,752334.0,0.0,0.0
11:16:27,752261.0,0.0,0.0
11:16:27,752307.0,0.0,0.0
11:16:27,752274.0,0.0,0.0
11:16:27,752290.0,0.0,0.0
11:16:27,752288.0,0.0,0.0
11:16:27,752217.0,0.0,0.0
11:16:27,752295.0,0.0,0.0
11:16:27,752259.0,0.0,0.0
11:16:27,752239.0,0.0,0.0
11:16:27,752266.0,0.0,0.0
11:16:27,752231.0,0.0,0.0
11:16:27,752298.0,0.0,0.0
11:16:27,752210.0,0.0,0.0
11:16:27,752204.0,0.0,0.0
11:16:27,752211.0,0.0,0.0
11:16:27,752181.0,0.0,0.0
11:16:27,752239.0,0.0,0.0
11:16:27,752173.0,0.0,0.0
11:16:27,752124.0,0.0,0.0
11:16:27,752101.0,0.0,0.0
11:16:27,752089.0,0.0,0.0
11:16:27,752317.0,0.0,0.0
11:16:27,752338.0,0.0,0.0
11:16:27,752291.0,0.0,0.0
11:16:27,752240.0,0.0,0.0
11:16:27,752165.0,0.0,0.0
11:16:27,752213.0,0.0,0.0
11:16:27,752143.0,0.0,0.0
11:16:27,752155.0,0.0,0.0
11:16:27,752153.0,0.0,0.0
11:16:27,752088.0,0.0,0.0
11:16:27,752123.0,0.0,0.0
11:16:27,752027.0,0.0,0.0
11:16:27,752039.0,0.0,0.0
11:16:27,752065.0,0.0,0.0
11:16:27,751996.0,0.0,0.0
11:16:27,752076.0,0.0,0.0
11:16:27,752025.0,0.0,0.0
11:16:27,752050.0,0.0,0.0
11:16:27,752074.0,0.0,0.0
11:16:27,752001.0,0.0,0.0
11:16:27,752077.0,0.0,0.0
11:16:27,752014.0,0.0,0.0
11:16:27,752029.0,0.0,0.0
11:16:27,752040.0,0.0,0.0
11:16:28,751944.0,0.0,0.0
11:16:28,752019.0,0.0,0.0
11:16:28,751943.0,0.0,0.0
11:16:28,751930.0,0.0,0.0
11:16:28,751945.0,0.0,0.0
11:16:28,751899.0,0.0,0.0
11:16:28,751964.0,0.0,0.0
11:16:28,751883.0,0.0,0.0
11:16:28,751922.0,0.0,0.0
11:16:28,751953.0,0.0,0.0
11:16:28,751919.0,0.0,0.0
11:16:28,751999.0,0.0,0.0
11:16:28,751941.0,0.0,0.0
11:16:28,751965.0,0.0,0.0
11:16:28,751984.0,0.0,0.0
11:16:28,751936.0,0.0,0.0
11:16:28,751949.0,0.0,0.0
11:16:28,751862.0,0.0,0.0
11:16:28,751893.0,0.0,0.0
11:16:28,751902.0,0.0,0.0
11:16:28,751853.0,0.0,0.0
11:16:28,751898.0,0.0,0.0
11:16:28,751853.0,0.0,0.0
11:16:28,751903.0,0.0,0.0
11:16:28,751919.0,0.0,0.0
11:16:28,751843.0,0.0,0.0
11:16:28,751924.0,0.0,0.0
11:16:28,751854.0,0.0,0.0
11:16:28,751854.0,0.0,0.0
11:16:28,751877.0,0.0,0.0
11:16:28,751826.0,0.0,0.0
11:16:28,751903.0,0.0,0.0
11:16:28,751829.0,0.0,0.0
11:16:28,751853.0,0.0,0.0
11:16:28,751901.0,0.0,0.0
11:16:28,751868.0,0.0,0.0
11:16:28,751882.0,0.0,0.0
11:16:28,751813.0,0.0,0.0
11:16:28,751822.0,0.0,0.0
11:16:28,751824.0,0.0,0.0
11:16:28,751758.0,0.0,0.0
11:16:28,751816.0,0.0,0.0
11:16:28,751723.0,0.0,0.0
11:16:28,751733.0,0.0,0.0
11:16:28,751768.0,0.0,0.0
11:16:28,751764.0,0.0,0.0
11:16:28,751851.0,0.0,0.0
11:16:28,751779.0,0.0,0.0
11:16:28,751808.0,0.0,0.0
11:16:28,751808.0,0.0,0.0
11:16:28,751728.0,0.0,0.0
11:16:28,751781.0,0.0,0.0
11:16:28,751767.0,0.0,0.0
11:16:28,751794.0,0.0,0.0
11:16:28,751821.0,0.0,0.0
11:16:28,751766.0,0.0,0.0
11:16:28,751721.0,0.0,0.0
11:16:28,751603.0,0.0,0.0
11:16:28,751659.0,0.0,0.0
11:16:28,751718.0,0.0,0.0
11:16:28,751756.0,0.0,0.0
11:16:28,751858.0,0.0,0.0
11:16:28,751809.0,0.0,0.0
11:16:28,751840.0,0.0,0.0
11:16:28,751791.0,0.0,0.0
11:16:28,751741.0,0.0,0.0
11:16:28,751823.0,0.0,0.0
11:16:28,751774.0,0.0,0.0
11:16:28,751785.0,0.0,0.0
11:16:28,751772.0,0.0,0.0
11:16:28,751739.0,0.0,0.0
11:16:28,751820.0,0.0,0.0
11:16:28,751751.0,0.0,0.0
11:16:28,751784.0,0.0,0.0
11:16:28,751780.0,0.0,0.0
11:16:28,751722.0,0.0,0.0
11:16:28,751765.0,0.0,0.0
11:16:28,751678.0,0.0,0.0
11:16:28,751690.0,0.0,0.0
11:16:28,751701.0,0.0,0.0
11:16:28,751643.0,0.0,0.0
11:16:28,751719.0,0.0,0.0
11:16:28,751700.0,0.0,0.0
11:16:28,751708.0,0.0,0.0
11:16:28,751721.0,0.0,0.0
11:16:28,751663.0,0.0,0.0
11:16:28,751751.0,0.0,0.0
11:16:28,751704.0,0.0,0.0
11:16:28,751723.0,0.0,0.0
11:16:28,751745.0,0.0,0.0
11:16:28,751668.0,0.0,0.0
11:16:28,751684.0,0.0,0.0
11:16:28,751647.0,0.0,0.0
11:16:28,751643.0,0.0,0.0
11:16:28,751594.0,0.0,0.0
11:16:28,751516.0,0.0,0.0
11:16:28,751532.0,0.0,0.0
11:16:28,751646.0,0.0,0.0
11:16:28,751805.0,0.0,0.0
11:16:28,751768.0,0.0,0.0
11:16:28,751630.0,0.0,0.0
11:16:28,751643.0,0.0,0.0
11:16:28,751575.0,0.0,0.0
11:16:28,751636.0,0.0,0.0
11:16:28,751646.0,0.0,0.0
11:16:28,751590.0,0.0,0.0
11:16:28,751661.0,0.0,0.0
11:16:28,751596.0,0.0,0.0
11:16:28,751646.0,0.0,0.0
11:16:28,751644.0,0.0,0.0
11:16:28,751592.0,0.0,0.0
11:16:28,751662.0,0.0,0.0
11:16:28,751580.0,0.0,0.0
11:16:28,751582.0,0.0,0.0
11:16:28,751603.0,0.0,0.0
11:16:28,751559.0,0.0,0.0
11:16:28,751638.0,0.0,0.0
11:16:28,751580.0,0.0,0.0
11:16:28,751588.0,0.0,0.0
11:16:28,751573.0,0.0,0.0
11:16:28,751541.0,0.0,0.0
11:16:28,751604.0,0.0,0.0
11:16:28,751520.0,0.0,0.0
11:16:28,751562.0,0.0,0.0
11:16:28,751588.0,0.0,0.0
11:16:29,751552.0,0.0,0.0
11:16:29,751622.0,0.0,0.0
11:16:29,751554.0,0.0,0.0
11:16:29,751580.0,0.0,0.0
11:16:29,751601.0,0.0,0.0
11:16:29,751559.0,0.0,0.0
11:16:29,751639.0,0.0,0.0
11:16:29,751556.0,0.0,0.0
11:16:29,751611.0,0.0,0.0
11:16:29,751609.0,0.0,0.0
11:16:29,751549.0,0.0,0.0
11:16:29,751583.0,0.0,0.0
11:16:29,751508.0,0.0,0.0
11:16:29,751520.0,0.0,0.0
11:16:29,751562.0,0.0,0.0
11:16:29,751504.0,0.0,0.0
11:16:29,751570.0,0.0,0.0
11:16:29,751513.0,0.0,0.0
11:16:29,751552.0,0.0,0.0
11:16:29,751559.0,0.0,0.0
11:16:29,751517.0,0.0,0.0
11:16:29,751579.0,0.0,0.0
11:16:29,751510.0,0.0,0.0
11:16:29,751549.0,0.0,0.0
11:16:29,751542.0,0.0,0.0
11:16:29,751484.0,0.0,0.0
11:16:29,751561.0,0.0,0.0
11:16:29,751498.0,0.0,0.0
11:16:29,751542.0,0.0,0.0
11:16:29,751533.0,0.0,0.0
11:16:29,751494.0,0.0,0.0
11:16:29,751531.0,0.0,0.0
11:16:29,751493.0,0.0,0.0
11:16:29,751554.0,0.0,0.0
11:16:29,751504.0,0.0,0.0
11:16:29,751490.0,0.0,0.0
11:16:29,751571.0,0.0,0.0
11:16:29,751520.0,0.0,0.0
11:16:29,751534.0,0.0,0.0
11:16:29,751534.0,0.0,0.0
11:16:29,751504.0,0.0,0.0
11:16:29,751536.0,0.0,0.0
11:16:29,751488.0,0.0,0.0
11:16:29,751505.0,0.0,0.0
11:16:29,751492.0,0.0,0.0
11:16:29,751450.0,0.0,0.0
11:16:29,751509.0,0.0,0.0
11:16:29,751483.0,0.0,0.0
11:16:29,751518.0,0.0,0.0
11:16:29,751499.0,0.0,0.0
11:16:29,751469.0,0.0,0.0
11:16:29,751505.0,0.0,0.0
11:16:29,751451.0,0.0,0.0
11:16:29,751496.0,0.0,0.0
11:16:29,751490.0,0.0,0.0
11:16:29,751415.0,0.0,0.0
11:16:29,751483.0,0.0,0.0
11:16:29,751443.0,0.0,0.0
11:16:29,751469.0,0.0,0.0
11:16:29,751465.0,0.0,0.0
11:16:29,751421.0,0.0,0.0
11:16:29,751459.0,0.0,0.0
11:16:29,751410.0,0.0,0.0
11:16:29,751442.0,0.0,0.0
11:16:29,751429.0,0.0,0.0
11:16:29,751381.0,0.0,0.0
11:16:29,751446.0,0.0,0.0
11:16:29,751401.0,0.0,0.0
11:16:29,751429.0,0.0,0.0
11:16:29,751433.0,0.0,0.0
11:16:29,751406.0,0.0,0.0
11:16:29,751453.0,0.0,0.0
11:16:29,751378.0,0.0,0.0
11:16:29,751419.0,0.0,0.0
11:16:29,751401.0,0.0,0.0
11:16:29,751367.0,0.0,0.0
11:16:29,751417.0,0.0,0.0
11:16:29,751370.0,0.0,0.0
11:16:29,751373.0,0.0,0.0
11:16:29,751392.0,0.0,0.0
11:16:29,751367.0,0.0,0.0
11:16:29,751441.0,0.0,0.0
11:16:29,751383.0,0.0,0.0
11:16:29,751423.0,0.0,0.0
11:16:29,751421.0,0.0,0.0
11:16:29,751394.0,0.0,0.0
11:16:29,751444.0,0.0,0.0
11:16:29,751389.0,0.0,0.0
11:16:29,751414.0,0.0,0.0
11:16:29,751417.0,0.0,0.0
11:16:29,751381.0,0.0,0.0
11:16:29,751406.0,0.0,0.0
11:16:29,751321.0,0.0,0.0
11:16:29,751309.0,0.0,0.0
11:16:29,751260.0,0.0,0.0
11:16:29,751299.0,0.0,0.0
11:16:29,751509.0,0.0,0.0
11:16:29,751526.0,0.0,0.0
11:16:29,751500.0,0.0,0.0
11:16:29,751436.0,0.0,0.0
11:16:29,751383.0,0.0,0.0
11:16:29,751411.0,0.0,0.0
11:16:29,751369.0,0.0,0.0
11:16:29,751403.0,0.0,0.0
11:16:29,751390.0,0.0,0.0
11:16:29,751365.0,0.0,0.0
11:16:29,751414.0,0.0,0.0
11:16:29,751339.0,0.0,0.0
11:16:29,751391.0,0.0,0.0
11:16:29,751366.0,0.0,0.0
11:16:29,751332.0,0.0,0.0
11:16:29,751367.0,0.0,0.0
11:16:29,751318.0,0.0,0.0
11:16:29,751376.0,0.0,0.0
11:16:29,751367.0,0.0,0.0
11:16:29,751313.0,0.0,0.0
11:16:29,751351.0,0.0,0.0
11:16:29,751291.0,0.0,0.0
11:16:29,751331.0,0.0,0.0
11:16:29,751299.0,0.0,0.0
11:16:29,751277.0,0.0,0.0
11:16:29,751335.0,0.0,0.0
11:16:29,751283.0,0.0,0.0
11:16:29,751349.0,0.0,0.0
11:16:29,751332.0,0.0,0.0
11:16:30,751305.0,0.0,0.0
11:16:30,751348.0,0.0,0.0
11:16:30,751288.0,0.0,0.0
11:16:30,751331.0,0.0,0.0
11:16:30,751336.0,0.0,0.0
11:16:30,751331.0,0.0,0.0
11:16:30,751360.0,0.0,0.0
11:16:30,751298.0,0.0,0.0
11:16:30,751361.0,0.0,0.0
11:16:30,751343.0,0.0,0.0
11:16:30,751301.0,0.0,0.0
11:16:30,751358.0,0.0,0.0
11:16:30,751285.0,0.0,0.0
11:16:30,751328.0,0.0,0.0
11:16:30,751308.0,0.0,0.0
11:16:30,751276.0,0.0,0.0
11:16:30,751340.0,0.0,0.0
11:16:30,751321.0,0.0,0.0
11:16:30,751350.0,0.0,0.0
11:16:30,751318.0,0.0,0.0
11:16:30,751255.0,0.0,0.0
11:16:30,751284.0,0.0,0.0
11:16:30,751243.0,0.0,0.0
11:16:30,751290.0,0.0,0.0
11:16:30,751252.0,0.0,0.0
11:16:30,751252.0,0.0,0.0
11:16:30,751291.0,0.0,0.0
11:16:30,751221.0,0.0,0.0
11:16:30,751273.0,0.0,0.0
11:16:30,751273.0,0.0,0.0
11:16:30,751263.0,0.0,0.0
11:16:30,751301.0,0.0,0.0
11:16:30,751231.0,0.0,0.0
11:16:30,751285.0,0.0,0.0
11:16:30,751270.0,0.0,0.0
11:16:30,751246.0,0.0,0.0
11:16:30,751294.0,0.0,0.0
11:16:30,751212.0,0.0,0.0
11:16:30,751253.0,0.0,0.0
11:16:30,751235.0,0.0,0.0
11:16:30,751237.0,0.0,0.0
11:16:30,751258.0,0.0,0.0
11:16:30,751206.0,0.0,0.0
11:16:30,751272.0,0.0,0.0
11:16:30,751253.0,0.0,0.0
11:16:30,751212.0,0.0,0.0
11:16:30,751278.0,0.0,0.0
11:16:30,751221.0,0.0,0.0
11:16:30,751276.0,0.0,0.0
11:16:30,751267.0,0.0,0.0
11:16:30,751234.0,0.0,0.0
11:16:30,751273.0,0.0,0.0
11:16:30,751203.0,0.0,0.0
11:16:30,751231.0,0.0,0.0
11:16:30,751235.0,0.0,0.0
11:16:30,751238.0,0.0,0.0
11:16:30,751273.0,0.0,0.0
11:16:30,751186.0,0.0,0.0
11:16:30,751234.0,0.0,0.0
11:16:30,751234.0,0.0,0.0
11:16:30,751218.0,0.0,0.0
11:16:30,751261.0,0.0,0.0
11:16:30,751201.0,0.0,0.0
11:16:30,751258.0,0.0,0.0
11:16:30,751227.0,0.0,0.0
11:16:30,751226.0,0.0,0.0
11:16:30,751256.0,0.0,0.0
11:16:30,751176.0,0.0,0.0
11:16:30,751226.0,0.0,0.0
11:16:30,751191.0,0.0,0.0
11:16:30,751193.0,0.0,0.0
11:16:30,751226.0,0.0,0.0
11:16:30,751161.0,0.0,0.0
11:16:30,751217.0,0.0,0.0
11:16:30,751210.0,0.0,0.0
11:16:30,751173.0,0.0,0.0
11:16:30,751214.0,0.0,0.0
11:16:30,751155.0,0.0,0.0
11:16:30,751224.0,0.0,0.0
11:16:30,751201.0,0.0,0.0
11:16:30,751193.0,0.0,0.0
11:16:30,751245.0,0.0,0.0
11:16:30,751178.0,0.0,0.0
11:16:30,751252.0,0.0,0.0
11:16:30,751236.0,0.0,0.0
11:16:30,751198.0,0.0,0.0
11:16:30,751234.0,0.0,0.0
11:16:30,751145.0,0.0,0.0
11:16:30,751212.0,0.0,0.0
11:16:30,751191.0,0.0,0.0
11:16:30,751183.0,0.0,0.0
11:16:30,751227.0,0.0,0.0
11:16:30,751163.0,0.0,0.0
11:16:30,751184.0,0.0,0.0
11:16:30,751109.0,0.0,0.0
11:16:30,751078.0,0.0,0.0
11:16:30,751258.0,0.0,0.0
11:16:30,751343.0,0.0,0.0
11:16:30,751356.0,0.0,0.0
11:16:30,751291.0,0.0,0.0
11:16:30,751229.0,0.0,0.0
11:16:30,751241.0,0.0,0.0
11:16:30,751218.0,0.0,0.0
11:16:30,751273.0,0.0,0.0
11:16:30,751264.0,0.0,0.0
11:16:30,751195.0,0.0,0.0
11:16:30,751241.0,0.0,0.0
11:16:30,751206.0,0.0,0.0
11:16:30,751258.0,0.0,0.0
11:16:30,751200.0,0.0,0.0
11:16:30,751202.0,0.0,0.0
11:16:30,751248.0,0.0,0.0
11:16:30,751161.0,0.0,0.0
11:16:30,751238.0,0.0,0.0
11:16:30,751256.0,0.0,0.0
11:16:30,751227.0,0.0,0.0
11:16:30,751248.0,0.0,0.0
11:16:30,751223.0,0.0,0.0
11:16:30,751262.0,0.0,0.0
11:16:30,751213.0,0.0,0.0
11:16:30,751209.0,0.0,0.0
11:16:30,751252.0,0.0,0.0
11:16:30,751178.0,0.0,0.0
11:16:30,751204.0,0.0,0.0
11:16:30,751194.0,0.0,0.0
11:16:31,751193.0,0.0,0.0
11:16:31,751276.0,0.0,0.0
11:16:31,751231.0,0.0,0.0
11:16:31,751250.0,0.0,0.0
11:16:31,751222.0,0.0,0.0
11:16:31,751231.0,0.0,0.0
11:16:31,751289.0,0.0,0.0
11:16:31,751243.0,0.0,0.0
11:16:31,751286.0,0.0,0.0
11:16:31,751264.0,0.0,0.0
11:16:31,751265.0,0.0,0.0
11:16:31,751310.0,0.0,0.0
11:16:31,751232.0,0.0,0.0
11:16:31,751298.0,0.0,0.0
11:16:31,751283.0,0.0,0.0
11:16:31,751251.0,0.0,0.0
11:16:31,751304.0,0.0,0.0
11:16:31,751271.0,0.0,0.0
11:16:31,751346.0,0.0,0.0
11:16:31,751306.0,0.0,0.0
11:16:31,751311.0,0.0,0.0
11:16:31,751346.0,0.0,0.0
11:16:31,751264.0,0.0,0.0
11:16:31,751324.0,0.0,0.0
11:16:31,751300.0,0.0,0.0
11:16:31,751338.0,0.0,0.0
11:16:31,751362.0,0.0,0.0
11:16:31,751273.0,0.0,0.0
11:16:31,751309.0,0.0,0.0
11:16:31,751303.0,0.0,0.0
11:16:31,751317.0,0.0,0.0
11:16:31,751368.0,0.0,0.0
11:16:31,751331.0,0.0,0.0
11:16:31,751376.0,0.0,0.0
11:16:31,751354.0,0.0,0.0
11:16:31,751339.0,0.0,0.0
11:16:31,751393.0,0.0,0.0
11:16:31,751338.0,0.0,0.0
11:16:31,751394.0,0.0,0.0
11:16:31,751395.0,0.0,0.0
11:16:31,751369.0,0.0,0.0
11:16:31,751410.0,0.0,0.0
11:16:31,751369.0,0.0,0.0
11:16:31,751439.0,0.0,0.0
11:16:31,751407.0,0.0,0.0
11:16:31,751383.0,0.0,0.0
11:16:31,751423.0,0.0,0.0
11:16:31,751381.0,0.0,0.0
11:16:31,751443.0,0.0,0.0
11:16:31,751428.0,0.0,0.0
11:16:31,751434.0,0.0,0.0
11:16:31,751501.0,0.0,0.0
11:16:31,751441.0,0.0,0.0
11:16:31,751489.0,0.0,0.0
11:16:31,751465.0,0.0,0.0
11:16:31,751466.0,0.0,0.0
11:16:31,751506.0,0.0,0.0
11:16:31,751474.0,0.0,0.0
11:16:31,751558.0,0.0,0.0
11:16:31,751522.0,0.0,0.0
11:16:31,751526.0,0.0,0.0
11:16:31,751587.0,0.0,0.0
11:16:31,751552.0,0.0,0.0
11:16:31,751591.0,0.0,0.0
11:16:31,751544.0,0.0,0.0
11:16:31,751529.0,0.0,0.0
11:16:31,751567.0,0.0,0.0
11:16:31,751523.0,0.0,0.0
11:16:31,751591.0,0.0,0.0
11:16:31,751549.0,0.0,0.0
11:16:31,751559.0,0.0,0.0
11:16:31,751563.0,0.0,0.0
11:16:31,751501.0,0.0,0.0
11:16:31,751598.0,0.0,0.0
11:16:31,751566.0,0.0,0.0
11:16:31,751580.0,0.0,0.0
11:16:31,751614.0,0.0,0.0
11:16:31,751542.0,0.0,0.0
11:16:31,751609.0,0.0,0.0
11:16:31,751583.0,0.0,0.0
11:16:31,751576.0,0.0,0.0
11:16:31,751637.0,0.0,0.0
11:16:31,751575.0,0.0,0.0
11:16:31,751648.0,0.0,0.0
11:16:31,751592.0,0.0,0.0
11:16:31,751608.0,0.0,0.0
11:16:31,751655.0,0.0,0.0
11:16:31,751598.0,0.0,0.0
11:16:31,751665.0,0.0,0.0
11:16:31,751649.0,0.0,0.0
11:16:31,751675.0,0.0,0.0
11:16:31,751698.0,0.0,0.0
11:16:31,751633.0,0.0,0.0
11:16:31,751631.0,0.0,0.0
11:16:31,751534.0,0.0,0.0
11:16:31,751596.0,0.0,0.0
11:16:31,751770.0,0.0,0.0
11:16:31,751788.0,0.0,0.0
11:16:31,751795.0,0.0,0.0
11:16:31,751686.0,0.0,0.0
11:16:31,751681.0,0.0,0.0
11:16:31,751734.0,0.0,0.0
11:16:31,751661.0,0.0,0.0
11:16:31,751738.0,0.0,0.0
11:16:31,751682.0,0.0,0.0
11:16:31,751638.0,0.0,0.0
11:16:31,751693.0,0.0,0.0
11:16:31,751614.0,0.0,0.0
11:16:31,751685.0,0.0,0.0
11:16:31,751654.0,0.0,0.0
11:16:31,751672.0,0.0,0.0
11:16:31,751712.0,0.0,0.0
11:16:31,751637.0,0.0,0.0
11:16:31,751676.0,0.0,0.0
11:16:31,751641.0,0.0,0.0
11:16:31,751644.0,0.0,0.0
11:16:31,751674.0,0.0,0.0
11:16:31,751643.0,0.0,0.0
11:16:31,751699.0,0.0,0.0
11:16:31,751661.0,0.0,0.0
11:16:31,751675.0,0.0,0.0
11:16:31,751709.0,0.0,0.0
11:16:31,751656.0,0.0,0.0
11:16:31,751709.0,0.0,0.0
11:16:31,751658.0,0.0,0.0
11:16:32,751663.0,0.0,0.0
11:16:32,751691.0,0.0,0.0
11:16:32,751635.0,0.0,0.0
11:16:32,751716.0,0.0,0.0
11:16:32,751681.0,0.0,0.0
11:16:32,751699.0,0.0,0.0
11:16:32,751705.0,0.0,0.0
11:16:32,751678.0,0.0,0.0
11:16:32,751743.0,0.0,0.0
11:16:32,751681.0,0.0,0.0
11:16:32,751679.0,0.0,0.0
11:16:32,751729.0,0.0,0.0
11:16:32,751696.0,0.0,0.0
11:16:32,751729.0,0.0,0.0
11:16:32,751703.0,0.0,0.0
11:16:32,751748.0,0.0,0.0
11:16:32,751742.0,0.0,0.0
11:16:32,751669.0,0.0,0.0
11:16:32,751719.0,0.0,0.0
11:16:32,751691.0,0.0,0.0
11:16:32,751696.0,0.0,0.0
11:16:32,751731.0,0.0,0.0
11:16:32,751723.0,0.0,0.0
11:16:32,751768.0,0.0,0.0
11:16:32,751738.0,0.0,0.0
11:16:32,751753.0,0.0,0.0
11:16:32,751785.0,0.0,0.0
11:16:32,751763.0,0.0,0.0
11:16:32,751803.0,0.0,0.0
11:16:32,751756.0,0.0,0.0
11:16:32,751794.0,0.0,0.0
11:16:32,751815.0,0.0,0.0
11:16:32,751780.0,0.0,0.0
11:16:32,751858.0,0.0,0.0
11:16:32,751821.0,0.0,0.0
11:16:32,751818.0,0.0,0.0
11:16:32,751880.0,0.0,0.0
11:16:32,751826.0,0.0,0.0
11:16:32,751902.0,0.0,0.0
11:16:32,751889.0,0.0,0.0
11:16:32,751899.0,0.0,0.0
11:16:32,751925.0,0.0,0.0
11:16:32,751914.0,0.0,0.0
11:16:32,751965.0,0.0,0.0
11:16:32,751934.0,0.0,0.0
11:16:32,751974.0,0.0,0.0
11:16:32,752004.0,0.0,0.0
11:16:32,751973.0,0.0,0.0
11:16:32,752064.0,0.0,0.0
11:16:32,752072.0,0.0,0.0
11:16:32,752086.0,0.0,0.0
11:16:32,752112.0,0.0,0.0
11:16:32,752098.0,0.0,0.0
11:16:32,752178.0,0.0,0.0
11:16:32,752152.0,0.0,0.0
11:16:32,752193.0,0.0,0.0
11:16:32,752208.0,0.0,0.0
11:16:32,752148.0,0.0,0.0
11:16:32,752247.0,0.0,0.0
11:16:32,752257.0,0.0,0.0
11:16:32,752254.0,0.0,0.0
11:16:32,752280.0,0.0,0.0
11:16:32,752258.0,0.0,0.0
11:16:32,752327.0,0.0,0.0
11:16:32,752279.0,0.0,0.0
11:16:32,752343.0,0.0,0.0
11:16:32,752373.0,0.0,0.0
11:16:32,752333.0,0.0,0.0
11:16:32,752428.0,0.0,0.0
11:16:32,752386.0,0.0,0.0
11:16:32,752418.0,0.0,0.0
11:16:32,752483.0,0.0,0.0
11:16:32,752429.0,0.0,0.0
11:16:32,752492.0,0.0,0.0
11:16:32,752468.0,0.0,0.0
11:16:32,752486.0,0.0,0.0
11:16:32,752519.0,0.0,0.0
11:16:32,752496.0,0.0,0.0
11:16:32,752556.0,0.0,0.0
11:16:32,752489.0,0.0,0.0
11:16:32,752529.0,0.0,0.0
11:16:32,752592.0,0.0,0.0
11:16:32,752556.0,0.0,0.0
11:16:32,752598.0,0.0,0.0
11:16:32,752568.0,0.0,0.0
11:16:32,752596.0,0.0,0.0
11:16:32,752644.0,0.0,0.0
11:16:32,752636.0,0.0,0.0
11:16:32,752675.0,0.0,0.0
11:16:32,752585.0,0.0,0.0
11:16:32,752570.0,0.0,0.0
11:16:32,752677.0,0.0,0.0
11:16:32,752802.0,0.0,0.0
11:16:32,752863.0,0.0,0.0
11:16:32,752736.0,0.0,0.0
11:16:32,752736.0,0.0,0.0
11:16:32,752763.0,0.0,0.0
11:16:32,752705.0,0.0,0.0
11:16:32,752794.0,0.0,0.0
11:16:32,752741.0,0.0,0.0
11:16:32,752737.0,0.0,0.0
11:16:32,752768.0,0.0,0.0
11:16:32,752724.0,0.0,0.0
11:16:32,752787.0,0.0,0.0
11:16:32,752749.0,0.0,0.0
11:16:32,752753.0,0.0,0.0
11:16:32,752783.0,0.0,0.0
11:16:32,752769.0,0.0,0.0
11:16:32,752841.0,0.0,0.0
11:16:32,752774.0,0.0,0.0
11:16:32,752797.0,0.0,0.0
11:16:32,752819.0,0.0,0.0
11:16:32,752764.0,0.0,0.0
11:16:32,752837.0,0.0,0.0
11:16:32,752807.0,0.0,0.0
11:16:32,752833.0,0.0,0.0
11:16:32,752841.0,0.0,0.0
11:16:32,752772.0,0.0,0.0
11:16:32,752805.0,0.0,0.0
11:16:32,752771.0,0.0,0.0
11:16:32,752801.0,0.0,0.0
11:16:32,752836.0,0.0,0.0
11:16:32,752791.0,0.0,0.0
11:16:32,752837.0,0.0,0.0
11:16:32,752791.0,0.0,0.0
11:16:33,752813.0,0.0,0.0
11:16:33,752843.0,0.0,0.0
11:16:33,752789.0,0.0,0.0
11:16:33,752843.0,0.0,0.0
11:16:33,752814.0,0.0,0.0
11:16:33,752828.0,0.0,0.0
11:16:33,752826.0,0.0,0.0
11:16:33,752788.0,0.0,0.0
11:16:33,752836.0,0.0,0.0
11:16:33,752779.0,0.0,0.0
11:16:33,752805.0,0.0,0.0
11:16:33,752814.0,0.0,0.0
11:16:33,752763.0,0.0,0.0
11:16:33,752851.0,0.0,0.0
11:16:33,752836.0,0.0,0.0
11:16:33,752844.0,0.0,0.0
11:16:33,752831.0,0.0,0.0
11:16:33,752783.0,0.0,0.0
11:16:33,752845.0,0.0,0.0
11:16:33,752796.0,0.0,0.0
11:16:33,752818.0,0.0,0.0
11:16:33,752818.0,0.0,0.0
11:16:33,752776.0,0.0,0.0
11:16:33,752840.0,0.0,0.0
11:16:33,752810.0,0.0,0.0
11:16:33,752836.0,0.0,0.0
11:16:33,752850.0,0.0,0.0
11:16:33,752807.0,0.0,0.0
11:16:33,752841.0,0.0,0.0
11:16:33,752789.0,0.0,0.0
11:16:33,752818.0,0.0,0.0
11:16:33,752857.0,0.0,0.0
11:16:33,752783.0,0.0,0.0
11:16:33,752831.0,0.0,0.0
11:16:33,752802.0,0.0,0.0
11:16:33,752809.0,0.0,0.0
11:16:33,752819.0,0.0,0.0
11:16:33,752796.0,0.0,0.0
11:16:33,752878.0,0.0,0.0
11:16:33,752810.0,0.0,0.0
11:16:33,752842.0,0.0,0.0
11:16:33,752854.0,0.0,0.0
11:16:33,752818.0,0.0,0.0
11:16:33,752856.0,0.0,0.0
11:16:33,752838.0,0.0,0.0
11:16:33,752840.0,0.0,0.0
11:16:33,752856.0,0.0,0.0
11:16:33,752829.0,0.0,0.0
11:16:33,752874.0,0.0,0.0
11:16:33,752815.0,0.0,0.0
11:16:33,752859.0,0.0,0.0
11:16:33,752866.0,0.0,0.0
11:16:33,752813.0,0.0,0.0
11:16:33,752851.0,0.0,0.0
11:16:33,752829.0,0.0,0.0
11:16:33,752856.0,0.0,0.0
11:16:33,752861.0,0.0,0.0
11:16:33,752805.0,0.0,0.0
11:16:33,752863.0,0.0,0.0
11:16:33,752826.0,0.0,0.0
11:16:33,752855.0,0.0,0.0
11:16:33,752878.0,0.0,0.0
11:16:33,752819.0,0.0,0.0
11:16:33,752863.0,0.0,0.0
11:16:33,752807.0,0.0,0.0
11:16:33,752804.0,0.0,0.0
11:16:33,752799.0,0.0,0.0
11:16:33,752748.0,0.0,0.0
11:16:33,752818.0,0.0,0.0
11:16:33,752764.0,0.0,0.0
11:16:33,752807.0,0.0,0.0
11:16:33,752820.0,0.0,0.0
11:16:33,752778.0,0.0,0.0
11:16:33,752831.0,0.0,0.0
11:16:33,752778.0,0.0,0.0
11:16:33,752787.0,0.0,0.0
11:16:33,752783.0,0.0,0.0
11:16:33,752724.0,0.0,0.0
11:16:33,752774.0,0.0,0.0
11:16:33,752726.0,0.0,0.0
11:16:33,752733.0,0.0,0.0
11:16:33,752701.0,0.0,0.0
11:16:33,752596.0,0.0,0.0
11:16:33,752739.0,0.0,0.0
11:16:33,752829.0,0.0,0.0
11:16:33,752895.0,0.0,0.0
11:16:33,752826.0,0.0,0.0
11:16:33,752749.0,0.0,0.0
11:16:33,752791.0,0.0,0.0
11:16:33,752713.0,0.0,0.0
11:16:33,752726.0,0.0,0.0
11:16:33,752699.0,0.0,0.0
11:16:33,752660.0,0.0,0.0
11:16:33,752690.0,0.0,0.0
11:16:33,752636.0,0.0,0.0
11:16:33,752648.0,0.0,0.0
11:16:33,752680.0,0.0,0.0
11:16:33,752631.0,0.0,0.0
11:16:33,752681.0,0.0,0.0
11:16:33,752599.0,0.0,0.0
11:16:33,752621.0,0.0,0.0
11:16:33,752618.0,0.0,0.0
11:16:33,752581.0,0.0,0.0
11:16:33,752615.0,0.0,0.0
11:16:33,752549.0,0.0,0.0
11:16:33,752587.0,0.0,0.0
11:16:33,752574.0,0.0,0.0
11:16:33,752531.0,0.0,0.0
11:16:33,752571.0,0.0,0.0
11:16:33,752479.0,0.0,0.0
11:16:33,752480.0,0.0,0.0
11:16:33,752524.0,0.0,0.0
11:16:33,752488.0,0.0,0.0
11:16:33,752516.0,0.0,0.0
11:16:33,752444.0,0.0,0.0
11:16:33,752478.0,0.0,0.0
11:16:33,752513.0,0.0,0.0
11:16:33,752467.0,0.0,0.0
11:16:33,752512.0,0.0,0.0
11:16:33,752448.0,0.0,0.0
11:16:33,752483.0,0.0,0.0
11:16:33,752466.0,0.0,0.0
11:16:33,752431.0,0.0,0.0
11:16:33,752453.0,0.0,0.0
11:16:33,752377.0,0.0,0.0
11:16:34,752424.0,0.0,0.0
11:16:34,752433.0,0.0,0.0
11:16:34,752379.0,0.0,0.0
11:16:34,752422.0,0.0,0.0
11:16:34,752383.0,0.0,0.0
11:16:34,752407.0,0.0,0.0
11:16:34,752409.0,0.0,0.0
11:16:34,752338.0,0.0,0.0
11:16:34,752383.0,0.0,0.0
11:16:34,752319.0,0.0,0.0
11:16:34,752344.0,0.0,0.0
11:16:34,752308.0,0.0,0.0
11:16:34,752273.0,0.0,0.0
11:16:34,752302.0,0.0,0.0
11:16:34,752251.0,0.0,0.0
11:16:34,752275.0,0.0,0.0
11:16:34,752269.0,0.0,0.0
11:16:34,752256.0,0.0,0.0
11:16:34,752276.0,0.0,0.0
11:16:34,752193.0,0.0,0.0
11:16:34,752263.0,0.0,0.0
11:16:34,752255.0,0.0,0.0
11:16:34,752208.0,0.0,0.0
11:16:34,752253.0,0.0,0.0
11:16:34,752190.0,0.0,0.0
11:16:34,752247.0,0.0,0.0
11:16:34,752236.0,0.0,0.0
11:16:34,752210.0,0.0,0.0
11:16:34,752266.0,0.0,0.0
11:16:34,752178.0,0.0,0.0
11:16:34,752224.0,0.0,0.0
11:16:34,752206.0,0.0,0.0
11:16:34,752163.0,0.0,0.0
11:16:34,752218.0,0.0,0.0
11:16:34,752154.0,0.0,0.0
11:16:34,752166.0,0.0,0.0
11:16:34,752126.0,0.0,0.0
11:16:34,752088.0,0.0,0.0
11:16:34,752123.0,0.0,0.0
11:16:34,752051.0,0.0,0.0
11:16:34,752113.0,0.0,0.0
11:16:34,752078.0,0.0,0.0
11:16:34,752041.0,0.0,0.0
11:16:34,752075.0,0.0,0.0
11:16:34,751993.0,0.0,0.0
11:16:34,752039.0,0.0,0.0
11:16:34,752010.0,0.0,0.0
11:16:34,751983.0,0.0,0.0
11:16:34,751989.0,0.0,0.0
11:16:34,751908.0,0.0,0.0
11:16:34,751926.0,0.0,0.0
11:16:34,751943.0,0.0,0.0
11:16:34,751898.0,0.0,0.0
11:16:34,751917.0,0.0,0.0
11:16:34,751839.0,0.0,0.0
11:16:34,751858.0,0.0,0.0
11:16:34,751856.0,0.0,0.0
11:16:34,751821.0,0.0,0.0
11:16:34,751861.0,0.0,0.0
11:16:34,751785.0,0.0,0.0
11:16:34,751803.0,0.0,0.0
11:16:34,751785.0,0.0,0.0
11:16:34,751748.0,0.0,0.0
11:16:34,751785.0,0.0,0.0
11:16:34,751722.0,0.0,0.0
11:16:34,751748.0,0.0,0.0
11:16:34,751730.0,0.0,0.0
11:16:34,751692.0,0.0,0.0
11:16:34,751732.0,0.0,0.0
11:16:34,751662.0,0.0,0.0
11:16:34,751672.0,0.0,0.0
11:16:34,751648.0,0.0,0.0
11:16:34,751505.0,0.0,0.0
11:16:34,751549.0,0.0,0.0
11:16:34,751639.0,0.0,0.0
11:16:34,751765.0,0.0,0.0
11:16:34,751706.0,0.0,0.0
11:16:34,751600.0,0.0,0.0
11:16:34,751618.0,0.0,0.0
11:16:34,751532.0,0.0,0.0
11:16:34,751531.0,0.0,0.0
11:16:34,751517.0,0.0,0.0
11:16:34,751474.0,0.0,0.0
11:16:34,751514.0,0.0,0.0
11:16:34,751460.0,0.0,0.0
11:16:34,751469.0,0.0,0.0
11:16:34,751410.0,0.0,0.0
11:16:34,751379.0,0.0,0.0
11:16:34,751456.0,0.0,0.0
11:16:34,751408.0,0.0,0.0
11:16:34,751425.0,0.0,0.0
11:16:34,751429.0,0.0,0.0
11:16:34,751361.0,0.0,0.0
11:16:34,751370.0,0.0,0.0
11:16:34,751304.0,0.0,0.0
11:16:34,751328.0,0.0,0.0
11:16:34,751299.0,0.0,0.0
11:16:34,751276.0,0.0,0.0
11:16:34,751330.0,0.0,0.0
11:16:34,751260.0,0.0,0.0
11:16:34,751280.0,0.0,0.0
11:16:34,751285.0,0.0,0.0
11:16:34,751246.0,0.0,0.0
11:16:34,751269.0,0.0,0.0
11:16:34,751213.0,0.0,0.0
11:16:34,751261.0,0.0,0.0
11:16:34,751228.0,0.0,0.0
11:16:34,751225.0,0.0,0.0
11:16:34,751284.0,0.0,0.0
11:16:34,751196.0,0.0,0.0
11:16:34,751221.0,0.0,0.0
11:16:34,751186.0,0.0,0.0
11:16:34,751138.0,0.0,0.0
11:16:34,751211.0,0.0,0.0
11:16:34,751123.0,0.0,0.0
11:16:34,751127.0,0.0,0.0
11:16:34,751118.0,0.0,0.0
11:16:34,751067.0,0.0,0.0
11:16:34,751138.0,0.0,0.0
11:16:34,751114.0,0.0,0.0
11:16:34,751117.0,0.0,0.0
11:16:34,751103.0,0.0,0.0
11:16:34,751072.0,0.0,0.0
11:16:34,751109.0,0.0,0.0
11:16:34,751034.0,0.0,0.0
11:16:35,751071.0,0.0,0.0
11:16:35,751053.0,0.0,0.0
11:16:35,751005.0,0.0,0.0
11:16:35,751029.0,0.0,0.0
11:16:35,750963.0,0.0,0.0
11:16:35,751031.0,0.0,0.0
11:16:35,751039.0,0.0,0.0
11:16:35,750989.0,0.0,0.0
11:16:35,751043.0,0.0,0.0
11:16:35,750966.0,0.0,0.0
11:16:35,751007.0,0.0,0.0
11:16:35,751002.0,0.0,0.0
11:16:35,750968.0,0.0,0.0
11:16:35,750993.0,0.0,0.0
11:16:35,750934.0,0.0,0.0
11:16:35,751004.0,0.0,0.0
11:16:35,750929.0,0.0,0.0
11:16:35,750923.0,0.0,0.0
11:16:35,750994.0,0.0,0.0
11:16:35,750918.0,0.0,0.0
11:16:35,750971.0,0.0,0.0
11:16:35,750951.0,0.0,0.0
11:16:35,750909.0,0.0,0.0
11:16:35,750957.0,0.0,0.0
11:16:35,750924.0,0.0,0.0
11:16:35,750938.0,0.0,0.0
11:16:35,750921.0,0.0,0.0
11:16:35,750887.0,0.0,0.0
11:16:35,750929.0,0.0,0.0
11:16:35,750881.0,0.0,0.0
11:16:35,750915.0,0.0,0.0
11:16:35,750879.0,0.0,0.0
11:16:35,750872.0,0.0,0.0
11:16:35,750923.0,0.0,0.0
11:16:35,750829.0,0.0,0.0
11:16:35,750872.0,0.0,0.0
11:16:35,750867.0,0.0,0.0
11:16:35,750864.0,0.0,0.0
11:16:35,750877.0,0.0,0.0
11:16:35,750823.0,0.0,0.0
11:16:35,750860.0,0.0,0.0
11:16:35,750828.0,0.0,0.0
11:16:35,750858.0,0.0,0.0
11:16:35,750876.0,0.0,0.0
11:16:35,750805.0,0.0,0.0
11:16:35,750863.0,0.0,0.0
11:16:35,750853.0,0.0,0.0
11:16:35,750830.0,0.0,0.0
11:16:35,750843.0,0.0,0.0
11:16:35,750769.0,0.0,0.0
11:16:35,750814.0,0.0,0.0
11:16:35,750794.0,0.0,0.0
11:16:35,750791.0,0.0,0.0
11:16:35,750805.0,0.0,0.0
11:16:35,750743.0,0.0,0.0
11:16:35,750811.0,0.0,0.0
11:16:35,750799.0,0.0,0.0
11:16:35,750776.0,0.0,0.0
11:16:35,750797.0,0.0,0.0
11:16:35,750726.0,0.0,0.0
11:16:35,750788.0,0.0,0.0
11:16:35,750741.0,0.0,0.0
11:16:35,750723.0,0.0,0.0
11:16:35,750763.0,0.0,0.0
11:16:35,750690.0,0.0,0.0
11:16:35,750646.0,0.0,0.0
11:16:35,750639.0,0.0,0.0
11:16:35,750773.0,0.0,0.0
11:16:35,750886.0,0.0,0.0
11:16:35,750800.0,0.0,0.0
11:16:35,750771.0,0.0,0.0
11:16:35,750726.0,0.0,0.0
11:16:35,750734.0,0.0,0.0
11:16:35,750774.0,0.0,0.0
11:16:35,750719.0,0.0,0.0
11:16:35,750753.0,0.0,0.0
11:16:35,750708.0,0.0,0.0
11:16:35,750682.0,0.0,0.0
11:16:35,750686.0,0.0,0.0
11:16:35,750626.0,0.0,0.0
11:16:35,750681.0,0.0,0.0
11:16:35,750635.0,0.0,0.0
11:16:35,750623.0,0.0,0.0
11:16:35,750657.0,0.0,0.0
11:16:35,750614.0,0.0,0.0
11:16:35,750651.0,0.0,0.0
11:16:35,750614.0,0.0,0.0
11:16:35,750601.0,0.0,0.0
11:16:35,750648.0,0.0,0.0
11:16:35,750595.0,0.0,0.0
11:16:35,750619.0,0.0,0.0
11:16:35,750586.0,0.0,0.0
11:16:35,750573.0,0.0,0.0
11:16:35,750616.0,0.0,0.0
11:16:35,750573.0,0.0,0.0
11:16:35,750632.0,0.0,0.0
11:16:35,750593.0,0.0,0.0
11:16:35,750561.0,0.0,0.0
11:16:35,750596.0,0.0,0.0
11:16:35,750564.0,0.0,0.0
11:16:35,750631.0,0.0,0.0
11:16:35,750623.0,0.0,0.0
11:16:35,750608.0,0.0,0.0
11:16:35,750641.0,0.0,0.0
11:16:35,750574.0,0.0,0.0
11:16:35,750609.0,0.0,0.0
11:16:35,750606.0,0.0,0.0
11:16:35,750571.0,0.0,0.0
11:16:35,750614.0,0.0,0.0
11:16:35,750569.0,0.0,0.0
11:16:35,750609.0,0.0,0.0
11:16:35,750558.0,0.0,0.0
11:16:35,750514.0,0.0,0.0
11:16:35,750561.0,0.0,0.0
11:16:35,750539.0,0.0,0.0
11:16:35,750592.0,0.0,0.0
11:16:35,750556.0,0.0,0.0
11:16:35,750526.0,0.0,0.0
11:16:35,750568.0,0.0,0.0
11:16:35,750518.0,0.0,0.0
11:16:35,750549.0,0.0,0.0
11:16:35,750513.0,0.0,0.0
11:16:35,750519.0,0.0,0.0
11:16:35,750535.0,0.0,0.0
11:16:35,750500.0,0.0,0.0
11:16:36,750544.0,0.0,0.0
11:16:36,750528.0,0.0,0.0
11:16:36,750515.0,0.0,0.0
11:16:36,750534.0,0.0,0.0
11:16:36,750491.0,0.0,0.0
11:16:36,750530.0,0.0,0.0
11:16:36,750498.0,0.0,0.0
11:16:36,750459.0,0.0,0.0
11:16:36,750483.0,0.0,0.0
11:16:36,750453.0,0.0,0.0
11:16:36,750523.0,0.0,0.0
11:16:36,750504.0,0.0,0.0
11:16:36,750481.0,0.0,0.0
11:16:36,750516.0,0.0,0.0
11:16:36,750461.0,0.0,0.0
11:16:36,750511.0,0.0,0.0
11:16:36,750484.0,0.0,0.0
11:16:36,750461.0,0.0,0.0
11:16:36,750519.0,0.0,0.0
11:16:36,750463.0,0.0,0.0
11:16:36,750509.0,0.0,0.0
11:16:36,750475.0,0.0,0.0
11:16:36,750483.0,0.0,0.0
11:16:36,750524.0,0.0,0.0
11:16:36,750453.0,0.0,0.0
11:16:36,750514.0,0.0,0.0
11:16:36,750479.0,0.0,0.0
11:16:36,750459.0,0.0,0.0
11:16:36,750501.0,0.0,0.0
11:16:36,750439.0,0.0,0.0
11:16:36,750456.0,0.0,0.0
11:16:36,750449.0,0.0,0.0
11:16:36,750422.0,0.0,0.0
11:16:36,750465.0,0.0,0.0
11:16:36,750406.0,0.0,0.0
11:16:36,750456.0,0.0,0.0
11:16:36,750426.0,0.0,0.0
11:16:36,750439.0,0.0,0.0
11:16:36,750466.0,0.0,0.0
11:16:36,750393.0,0.0,0.0
11:16:36,750430.0,0.0,0.0
11:16:36,750399.0,0.0,0.0
11:16:36,750399.0,0.0,0.0
11:16:36,750413.0,0.0,0.0
11:16:36,750342.0,0.0,0.0
11:16:36,750396.0,0.0,0.0
11:16:36,750363.0,0.0,0.0
11:16:36,750365.0,0.0,0.0
11:16:36,750414.0,0.0,0.0
11:16:36,750349.0,0.0,0.0
11:16:36,750381.0,0.0,0.0
11:16:36,750370.0,0.0,0.0
11:16:36,750372.0,0.0,0.0
11:16:36,750411.0,0.0,0.0
11:16:36,750329.0,0.0,0.0
11:16:36,750369.0,0.0,0.0
11:16:36,750354.0,0.0,0.0
11:16:36,750346.0,0.0,0.0
11:16:36,750384.0,0.0,0.0
11:16:36,750318.0,0.0,0.0
11:16:36,750323.0,0.0,0.0
11:16:36,750232.0,0.0,0.0
11:16:36,750208.0,0.0,0.0
11:16:36,750359.0,0.0,0.0
11:16:36,750463.0,0.0,0.0
11:16:36,750496.0,0.0,0.0
11:16:36,750370.0,0.0,0.0
11:16:36,750334.0,0.0,0.0
11:16:36,750354.0,0.0,0.0
11:16:36,750293.0,0.0,0.0
11:16:36,750351.0,0.0,0.0
11:16:36,750318.0,0.0,0.0
11:16:36,750289.0,0.0,0.0
11:16:36,750303.0,0.0,0.0
11:16:36,750242.0,0.0,0.0
11:16:36,750283.0,0.0,0.0
11:16:36,750254.0,0.0,0.0
11:16:36,750280.0,0.0,0.0
11:16:36,750287.0,0.0,0.0
11:16:36,750244.0,0.0,0.0
11:16:36,750268.0,0.0,0.0
11:16:36,750222.0,0.0,0.0
11:16:36,750249.0,0.0,0.0
11:16:36,750278.0,0.0,0.0
11:16:36,750188.0,0.0,0.0
11:16:36,750209.0,0.0,0.0
11:16:36,750188.0,0.0,0.0
11:16:36,750199.0,0.0,0.0
11:16:36,750228.0,0.0,0.0
11:16:36,750171.0,0.0,0.0
11:16:36,750231.0,0.0,0.0
11:16:36,750179.0,0.0,0.0
11:16:36,750204.0,0.0,0.0
11:16:36,750242.0,0.0,0.0
11:16:36,750194.0,0.0,0.0
11:16:36,750219.0,0.0,0.0
11:16:36,750221.0,0.0,0.0
11:16:36,750246.0,0.0,0.0
11:16:36,750256.0,0.0,0.0
11:16:36,750229.0,0.0,0.0
11:16:36,750260.0,0.0,0.0
11:16:36,750158.0,0.0,0.0
11:16:36,750176.0,0.0,0.0
11:16:36,750233.0,0.0,0.0
11:16:36,750180.0,0.0,0.0
11:16:36,750239.0,0.0,0.0
11:16:36,750194.0,0.0,0.0
11:16:36,750202.0,0.0,0.0
11:16:36,750234.0,0.0,0.0
11:16:36,750181.0,0.0,0.0
11:16:36,750223.0,0.0,0.0
11:16:36,750199.0,0.0,0.0
11:16:36,750198.0,0.0,0.0
11:16:36,750221.0,0.0,0.0
11:16:36,750159.0,0.0,0.0
11:16:36,750206.0,0.0,0.0
11:16:36,750144.0,0.0,0.0
11:16:36,750175.0,0.0,0.0
11:16:36,750213.0,0.0,0.0
11:16:36,750159.0,0.0,0.0
11:16:36,750211.0,0.0,0.0
11:16:36,750166.0,0.0,0.0
11:16:36,750206.0,0.0,0.0
11:16:36,750231.0,0.0,0.0
11:16:36,750153.0,0.0,0.0
11:16:37,750199.0,0.0,0.0
11:16:37,750144.0,0.0,0.0
11:16:37,750146.0,0.0,0.0
11:16:37,750183.0,0.0,0.0
11:16:37,750118.0,0.0,0.0
11:16:37,750155.0,0.0,0.0
11:16:37,750089.0,0.0,0.0
11:16:37,750105.0,0.0,0.0
11:16:37,750157.0,0.0,0.0
11:16:37,750135.0,0.0,0.0
11:16:37,750182.0,0.0,0.0
11:16:37,750126.0,0.0,0.0
11:16:37,750152.0,0.0,0.0
11:16:37,750168.0,0.0,0.0
11:16:37,750118.0,0.0,0.0
11:16:37,750186.0,0.0,0.0
11:16:37,750128.0,0.0,0.0
11:16:37,750136.0,0.0,0.0
11:16:37,750181.0,0.0,0.0
11:16:37,750113.0,0.0,0.0
11:16:37,750157.0,0.0,0.0
11:16:37,750110.0,0.0,0.0
11:16:37,750109.0,0.0,0.0
11:16:37,750131.0,0.0,0.0
11:16:37,750074.0,0.0,0.0
11:16:37,750139.0,0.0,0.0
11:16:37,750078.0,0.0,0.0
11:16:37,750083.0,0.0,0.0
11:16:37,750112.0,0.0,0.0
11:16:37,750057.0,0.0,0.0
11:16:37,750097.0,0.0,0.0
11:16:37,750054.0,0.0,0.0
11:16:37,750059.0,0.0,0.0
11:16:37,750113.0,0.0,0.0
11:16:37,750063.0,0.0,0.0
11:16:37,750101.0,0.0,0.0
11:16:37,750058.0,0.0,0.0
11:16:37,750073.0,0.0,0.0
11:16:37,750118.0,0.0,0.0
11:16:37,750084.0,0.0,0.0
11:16:37,750130.0,0.0,0.0
11:16:37,750084.0,0.0,0.0
11:16:37,750084.0,0.0,0.0
11:16:37,750091.0,0.0,0.0
11:16:37,750046.0,0.0,0.0
11:16:37,750106.0,0.0,0.0
11:16:37,750044.0,0.0,0.0
11:16:37,750060.0,0.0,0.0
11:16:37,750090.0,0.0,0.0
11:16:37,750036.0,0.0,0.0
11:16:37,750099.0,0.0,0.0
11:16:37,750051.0,0.0,0.0
11:16:37,750073.0,0.0,0.0
11:16:37,750098.0,0.0,0.0
11:16:37,750046.0,0.0,0.0
11:16:37,750093.0,0.0,0.0
11:16:37,750048.0,0.0,0.0
11:16:37,750072.0,0.0,0.0
11:16:37,750102.0,0.0,0.0
11:16:37,750008.0,0.0,0.0
11:16:37,749987.0,0.0,0.0
11:16:37,749909.0,0.0,0.0
11:16:37,750048.0,0.0,0.0
11:16:37,750206.0,0.0,0.0
11:16:37,750157.0,0.0,0.0
11:16:37,750128.0,0.0,0.0
11:16:37,750053.0,0.0,0.0
11:16:37,750064.0,0.0,0.0
11:16:37,750051.0,0.0,0.0
11:16:37,750010.0,0.0,0.0
11:16:37,750090.0,0.0,0.0
11:16:37,750019.0,0.0,0.0
11:16:37,750029.0,0.0,0.0
11:16:37,750064.0,0.0,0.0
11:16:37,750013.0,0.0,0.0
11:16:37,750084.0,0.0,0.0
11:16:37,750036.0,0.0,0.0
11:16:37,750058.0,0.0,0.0
11:16:37,750063.0,0.0,0.0
11:16:37,750019.0,0.0,0.0
11:16:37,750069.0,0.0,0.0
11:16:37,750053.0,0.0,0.0
11:16:37,750046.0,0.0,0.0
11:16:37,750056.0,0.0,0.0
11:16:37,750043.0,0.0,0.0
11:16:37,750074.0,0.0,0.0
11:16:37,749989.0,0.0,0.0
11:16:37,750002.0,0.0,0.0
11:16:37,750011.0,0.0,0.0
11:16:37,749992.0,0.0,0.0
11:16:37,750036.0,0.0,0.0
11:16:37,749989.0,0.0,0.0
11:16:37,750016.0,0.0,0.0
11:16:37,750016.0,0.0,0.0
11:16:37,749983.0,0.0,0.0
11:16:37,750074.0,0.0,0.0
11:16:37,750043.0,0.0,0.0
11:16:37,750091.0,0.0,0.0
11:16:37,750107.0,0.0,0.0
11:16:37,750051.0,0.0,0.0
11:16:37,750107.0,0.0,0.0
11:16:37,750060.0,0.0,0.0
11:16:37,750056.0,0.0,0.0
11:16:37,750103.0,0.0,0.0
11:16:37,750080.0,0.0,0.0
11:16:37,750101.0,0.0,0.0
11:16:37,750039.0,0.0,0.0
11:16:37,750043.0,0.0,0.0
11:16:37,750078.0,0.0,0.0
11:16:37,750061.0,0.0,0.0
11:16:37,750094.0,0.0,0.0
11:16:37,750084.0,0.0,0.0
11:16:37,750105.0,0.0,0.0
11:16:37,750100.0,0.0,0.0
11:16:37,750054.0,0.0,0.0
11:16:37,750115.0,0.0,0.0
11:16:37,750065.0,0.0,0.0
11:16:37,750076.0,0.0,0.0
11:16:37,750102.0,0.0,0.0
11:16:37,750057.0,0.0,0.0
11:16:37,750106.0,0.0,0.0
11:16:37,750038.0,0.0,0.0
11:16:37,750048.0,0.0,0.0
11:16:37,750079.0,0.0,0.0
11:16:37,750033.0,0.0,0.0
11:16:38,750097.0,0.0,0.0
11:16:38,750032.0,0.0,0.0
11:16:38,750069.0,0.0,0.0
11:16:38,750098.0,0.0,0.0
11:16:38,750059.0,0.0,0.0
11:16:38,750107.0,0.0,0.0
11:16:38,750098.0,0.0,0.0
11:16:38,750119.0,0.0,0.0
11:16:38,750136.0,0.0,0.0
11:16:38,750079.0,0.0,0.0
11:16:38,750136.0,0.0,0.0
11:16:38,750082.0,0.0,0.0
11:16:38,750101.0,0.0,0.0
11:16:38,750138.0,0.0,0.0
11:16:38,750106.0,0.0,0.0
11:16:38,750146.0,0.0,0.0
11:16:38,750128.0,0.0,0.0
11:16:38,750151.0,0.0,0.0
11:16:38,750149.0,0.0,0.0
11:16:38,750113.0,0.0,0.0
11:16:38,750177.0,0.0,0.0
11:16:38,750102.0,0.0,0.0
11:16:38,750125.0,0.0,0.0
11:16:38,750135.0,0.0,0.0
11:16:38,750096.0,0.0,0.0
11:16:38,750155.0,0.0,0.0
11:16:38,750096.0,0.0,0.0
11:16:38,750152.0,0.0,0.0
11:16:38,750169.0,0.0,0.0
11:16:38,750169.0,0.0,0.0
11:16:38,750217.0,0.0,0.0
11:16:38,750148.0,0.0,0.0
11:16:38,750170.0,0.0,0.0
11:16:38,750155.0,0.0,0.0
11:16:38,750123.0,0.0,0.0
11:16:38,750160.0,0.0,0.0
11:16:38,750134.0,0.0,0.0
11:16:38,750180.0,0.0,0.0
11:16:38,750174.0,0.0,0.0
11:16:38,750156.0,0.0,0.0
11:16:38,750209.0,0.0,0.0
11:16:38,750157.0,0.0,0.0
11:16:38,750158.0,0.0,0.0
11:16:38,750174.0,0.0,0.0
11:16:38,750144.0,0.0,0.0
11:16:38,750206.0,0.0,0.0
11:16:38,750171.0,0.0,0.0
11:16:38,750223.0,0.0,0.0
11:16:38,750251.0,0.0,0.0
11:16:38,750214.0,0.0,0.0
11:16:38,750266.0,0.0,0.0
11:16:38,750179.0,0.0,0.0
11:16:38,750211.0,0.0,0.0
11:16:38,750199.0,0.0,0.0
11:16:38,750186.0,0.0,0.0
11:16:38,750239.0,0.0,0.0
11:16:38,750192.0,0.0,0.0
11:16:38,750183.0,0.0,0.0
11:16:38,750162.0,0.0,0.0
11:16:38,750096.0,0.0,0.0
11:16:38,750253.0,0.0,0.0
11:16:38,750338.0,0.0,0.0
11:16:38,750357.0,0.0,0.0
11:16:38,750338.0,0.0,0.0
11:16:38,750294.0,0.0,0.0
11:16:38,750343.0,0.0,0.0
11:16:38,750279.0,0.0,0.0
11:16:38,750329.0,0.0,0.0
11:16:38,750326.0,0.0,0.0
11:16:38,750271.0,0.0,0.0
11:16:38,750340.0,0.0,0.0
11:16:38,750278.0,0.0,0.0
11:16:38,750313.0,0.0,0.0
11:16:38,750313.0,0.0,0.0
11:16:38,750264.0,0.0,0.0
11:16:38,750327.0,0.0,0.0
11:16:38,750291.0,0.0,0.0
11:16:38,750313.0,0.0,0.0
11:16:38,750313.0,0.0,0.0
11:16:38,750268.0,0.0,0.0
11:16:38,750339.0,0.0,0.0
11:16:38,750337.0,0.0,0.0
11:16:38,750327.0,0.0,0.0
11:16:38,750306.0,0.0,0.0
11:16:38,750241.0,0.0,0.0
11:16:38,750327.0,0.0,0.0
11:16:38,750253.0,0.0,0.0
11:16:38,750290.0,0.0,0.0
11:16:38,750308.0,0.0,0.0
11:16:38,750286.0,0.0,0.0
11:16:38,750346.0,0.0,0.0
11:16:38,750299.0,0.0,0.0
11:16:38,750333.0,0.0,0.0
11:16:38,750362.0,0.0,0.0
11:16:38,750360.0,0.0,0.0
11:16:38,750399.0,0.0,0.0
11:16:38,750346.0,0.0,0.0
11:16:38,750396.0,0.0,0.0
11:16:38,750417.0,0.0,0.0
11:16:38,750364.0,0.0,0.0
11:16:38,750403.0,0.0,0.0
11:16:38,750357.0,0.0,0.0
11:16:38,750393.0,0.0,0.0
11:16:38,750381.0,0.0,0.0
11:16:38,750351.0,0.0,0.0
11:16:38,750426.0,0.0,0.0
11:16:38,750388.0,0.0,0.0
11:16:38,750428.0,0.0,0.0
11:16:38,750434.0,0.0,0.0
11:16:38,750383.0,0.0,0.0
11:16:38,750458.0,0.0,0.0
11:16:38,750404.0,0.0,0.0
11:16:38,750447.0,0.0,0.0
11:16:38,750461.0,0.0,0.0
11:16:38,750419.0,0.0,0.0
11:16:38,750466.0,0.0,0.0
11:16:38,750426.0,0.0,0.0
11:16:38,750456.0,0.0,0.0
11:16:38,750474.0,0.0,0.0
11:16:38,750465.0,0.0,0.0
11:16:38,750538.0,0.0,0.0
11:16:38,750507.0,0.0,0.0
11:16:38,750521.0,0.0,0.0
11:16:38,750509.0,0.0,0.0
11:16:38,750507.0,0.0,0.0
11:16:39,750548.0,0.0,0.0
11:16:39,750471.0,0.0,0.0
11:16:39,750561.0,0.0,0.0
11:16:39,750561.0,0.0,0.0
11:16:39,750547.0,0.0,0.0
11:16:39,750626.0,0.0,0.0
11:16:39,750585.0,0.0,0.0
11:16:39,750624.0,0.0,0.0
11:16:39,750627.0,0.0,0.0
11:16:39,750567.0,0.0,0.0
11:16:39,750636.0,0.0,0.0
11:16:39,750591.0,0.0,0.0
11:16:39,750634.0,0.0,0.0
11:16:39,750645.0,0.0,0.0
11:16:39,750621.0,0.0,0.0
11:16:39,750694.0,0.0,0.0
11:16:39,750654.0,0.0,0.0
11:16:39,750678.0,0.0,0.0
11:16:39,750691.0,0.0,0.0
11:16:39,750669.0,0.0,0.0
11:16:39,750705.0,0.0,0.0
11:16:39,750671.0,0.0,0.0
11:16:39,750733.0,0.0,0.0
11:16:39,750729.0,0.0,0.0
11:16:39,750683.0,0.0,0.0
11:16:39,750751.0,0.0,0.0
11:16:39,750727.0,0.0,0.0
11:16:39,750771.0,0.0,0.0
11:16:39,750754.0,0.0,0.0
11:16:39,750761.0,0.0,0.0
11:16:39,750774.0,0.0,0.0
11:16:39,750730.0,0.0,0.0
11:16:39,750759.0,0.0,0.0
11:16:39,750751.0,0.0,0.0
11:16:39,750762.0,0.0,0.0
11:16:39,750816.0,0.0,0.0
11:16:39,750763.0,0.0,0.0
11:16:39,750821.0,0.0,0.0
11:16:39,750820.0,0.0,0.0
11:16:39,750775.0,0.0,0.0
11:16:39,750823.0,0.0,0.0
11:16:39,750800.0,0.0,0.0
11:16:39,750834.0,0.0,0.0
11:16:39,750820.0,0.0,0.0
11:16:39,750793.0,0.0,0.0
11:16:39,750864.0,0.0,0.0
11:16:39,750830.0,0.0,0.0
11:16:39,750873.0,0.0,0.0
11:16:39,750856.0,0.0,0.0
11:16:39,750824.0,0.0,0.0
11:16:39,750880.0,0.0,0.0
11:16:39,750796.0,0.0,0.0
11:16:39,750849.0,0.0,0.0
11:16:39,750848.0,0.0,0.0
11:16:39,750785.0,0.0,0.0
11:16:39,750778.0,0.0,0.0
11:16:39,750732.0,0.0,0.0
11:16:39,750948.0,0.0,0.0
11:16:39,751081.0,0.0,0.0
11:16:39,750983.0,0.0,0.0
11:16:39,750970.0,0.0,0.0
11:16:39,750895.0,0.0,0.0
11:16:39,750938.0,0.0,0.0
11:16:39,750931.0,0.0,0.0
11:16:39,750894.0,0.0,0.0
11:16:39,750969.0,0.0,0.0
11:16:39,750917.0,0.0,0.0
11:16:39,750916.0,0.0,0.0
11:16:39,750891.0,0.0,0.0
11:16:39,750854.0,0.0,0.0
11:16:39,750946.0,0.0,0.0
11:16:39,750878.0,0.0,0.0
11:16:39,750926.0,0.0,0.0
11:16:39,750919.0,0.0,0.0
11:16:39,750900.0,0.0,0.0
11:16:39,750942.0,0.0,0.0
11:16:39,750908.0,0.0,0.0
11:16:39,750983.0,0.0,0.0
11:16:39,750943.0,0.0,0.0
11:16:39,750893.0,0.0,0.0
11:16:39,750932.0,0.0,0.0
11:16:39,750874.0,0.0,0.0
11:16:39,750956.0,0.0,0.0
11:16:39,750934.0,0.0,0.0
11:16:39,750868.0,0.0,0.0
11:16:39,750921.0,0.0,0.0
11:16:39,750882.0,0.0,0.0
11:16:39,750894.0,0.0,0.0
11:16:39,750906.0,0.0,0.0
11:16:39,750889.0,0.0,0.0
11:16:39,750931.0,0.0,0.0
11:16:39,750893.0,0.0,0.0
11:16:39,750936.0,0.0,0.0
11:16:39,750949.0,0.0,0.0
11:16:39,750910.0,0.0,0.0
11:16:39,750957.0,0.0,0.0
11:16:39,750932.0,0.0,0.0
11:16:39,750954.0,0.0,0.0
11:16:39,750946.0,0.0,0.0
11:16:39,750908.0,0.0,0.0
11:16:39,750928.0,0.0,0.0
11:16:39,750868.0,0.0,0.0
11:16:39,750935.0,0.0,0.0
11:16:39,750915.0,0.0,0.0
11:16:39,750904.0,0.0,0.0
11:16:39,750966.0,0.0,0.0
11:16:39,750926.0,0.0,0.0
11:16:39,750959.0,0.0,0.0
11:16:39,750959.0,0.0,0.0
11:16:39,750951.0,0.0,0.0
11:16:39,750972.0,0.0,0.0
11:16:39,750913.0,0.0,0.0
11:16:39,750981.0,0.0,0.0
11:16:39,750981.0,0.0,0.0
11:16:39,750950.0,0.0,0.0
11:16:39,750995.0,0.0,0.0
11:16:39,750963.0,0.0,0.0
11:16:39,750992.0,0.0,0.0
11:16:39,750973.0,0.0,0.0
11:16:39,750971.0,0.0,0.0
11:16:39,751032.0,0.0,0.0
11:16:39,750943.0,0.0,0.0
11:16:39,751005.0,0.0,0.0
11:16:39,750993.0,0.0,0.0
11:16:39,750976.0,0.0,0.0
11:16:40,751039.0,0.0,0.0
11:16:40,750988.0,0.0,0.0
11:16:40,751037.0,0.0,0.0
11:16:40,750994.0,0.0,0.0
11:16:40,750967.0,0.0,0.0
11:16:40,751037.0,0.0,0.0
11:16:40,750999.0,0.0,0.0
11:16:40,751029.0,0.0,0.0
11:16:40,751010.0,0.0,0.0
11:16:40,750974.0,0.0,0.0
11:16:40,751027.0,0.0,0.0
11:16:40,750988.0,0.0,0.0
11:16:40,751058.0,0.0,0.0
11:16:40,751026.0,0.0,0.0
11:16:40,751038.0,0.0,0.0
11:16:40,751060.0,0.0,0.0
11:16:40,751008.0,0.0,0.0
11:16:40,751054.0,0.0,0.0
11:16:40,751044.0,0.0,0.0
11:16:40,751012.0,0.0,0.0
11:16:40,751101.0,0.0,0.0
11:16:40,751063.0,0.0,0.0
11:16:40,751074.0,0.0,0.0
11:16:40,751032.0,0.0,0.0
11:16:40,751002.0,0.0,0.0
11:16:40,751067.0,0.0,0.0
11:16:40,751006.0,0.0,0.0
11:16:40,751043.0,0.0,0.0
11:16:40,751051.0,0.0,0.0
11:16:40,751014.0,0.0,0.0
11:16:40,751038.0,0.0,0.0
11:16:40,750983.0,0.0,0.0
11:16:40,751068.0,0.0,0.0
11:16:40,751060.0,0.0,0.0
11:16:40,751038.0,0.0,0.0
11:16:40,751054.0,0.0,0.0
11:16:40,751030.0,0.0,0.0
11:16:40,751084.0,0.0,0.0
11:16:40,751057.0,0.0,0.0
11:16:40,751034.0,0.0,0.0
11:16:40,751058.0,0.0,0.0
11:16:40,751024.0,0.0,0.0
11:16:40,751036.0,0.0,0.0
11:16:40,751018.0,0.0,0.0
11:16:40,750986.0,0.0,0.0
11:16:40,751051.0,0.0,0.0
11:16:40,750998.0,0.0,0.0
11:16:40,751044.0,0.0,0.0
11:16:40,751008.0,0.0,0.0
11:16:40,750973.0,0.0,0.0
11:16:40,750960.0,0.0,0.0
11:16:40,750893.0,0.0,0.0
11:16:40,751080.0,0.0,0.0
11:16:40,751181.0,0.0,0.0
11:16:40,751109.0,0.0,0.0
11:16:40,751089.0,0.0,0.0
11:16:40,750993.0,0.0,0.0
11:16:40,751028.0,0.0,0.0
11:16:40,750985.0,0.0,0.0
11:16:40,750966.0,0.0,0.0
11:16:40,751014.0,0.0,0.0
11:16:40,750978.0,0.0,0.0
11:16:40,750993.0,0.0,0.0
11:16:40,750954.0,0.0,0.0
11:16:40,750945.0,0.0,0.0
11:16:40,750967.0,0.0,0.0
11:16:40,750904.0,0.0,0.0
11:16:40,750976.0,0.0,0.0
11:16:40,750973.0,0.0,0.0
11:16:40,750972.0,0.0,0.0
11:16:40,750979.0,0.0,0.0
11:16:40,750892.0,0.0,0.0
11:16:40,750948.0,0.0,0.0
11:16:40,750934.0,0.0,0.0
11:16:40,750920.0,0.0,0.0
11:16:40,750938.0,0.0,0.0
11:16:40,750874.0,0.0,0.0
11:16:40,750887.0,0.0,0.0
11:16:40,750864.0,0.0,0.0
11:16:40,750842.0,0.0,0.0
11:16:40,750896.0,0.0,0.0
11:16:40,750849.0,0.0,0.0
11:16:40,750907.0,0.0,0.0
11:16:40,750876.0,0.0,0.0
11:16:40,750865.0,0.0,0.0
11:16:40,750908.0,0.0,0.0
11:16:40,750830.0,0.0,0.0
11:16:40,750891.0,0.0,0.0
11:16:40,750865.0,0.0,0.0
11:16:40,750847.0,0.0,0.0
11:16:40,750886.0,0.0,0.0
11:16:40,750814.0,0.0,0.0
11:16:40,750841.0,0.0,0.0
11:16:40,750817.0,0.0,0.0
11:16:40,750808.0,0.0,0.0
11:16:40,750868.0,0.0,0.0
11:16:40,750816.0,0.0,0.0
11:16:40,750861.0,0.0,0.0
11:16:40,750803.0,0.0,0.0
11:16:40,750838.0,0.0,0.0
11:16:40,750883.0,0.0,0.0
11:16:40,750844.0,0.0,0.0
11:16:40,750875.0,0.0,0.0
11:16:40,750848.0,0.0,0.0
11:16:40,750848.0,0.0,0.0
11:16:40,750886.0,0.0,0.0
11:16:40,750805.0,0.0,0.0
11:16:40,750848.0,0.0,0.0
11:16:40,750818.0,0.0,0.0
11:16:40,750795.0,0.0,0.0
11:16:40,750831.0,0.0,0.0
11:16:40,750775.0,0.0,0.0
11:16:40,750819.0,0.0,0.0
11:16:40,750781.0,0.0,0.0
11:16:40,750777.0,0.0,0.0
11:16:40,750828.0,0.0,0.0
11:16:40,750761.0,0.0,0.0
11:16:40,750807.0,0.0,0.0
11:16:40,750787.0,0.0,0.0
11:16:40,750755.0,0.0,0.0
11:16:40,750784.0,0.0,0.0
11:16:40,750739.0,0.0,0.0
11:16:40,750808.0,0.0,0.0
11:16:40,750821.0,0.0,0.0
11:16:41,750798.0,0.0,0.0
11:16:41,750818.0,0.0,0.0
11:16:41,750764.0,0.0,0.0
11:16:41,750806.0,0.0,0.0
11:16:41,750768.0,0.0,0.0
11:16:41,750750.0,0.0,0.0
11:16:41,750800.0,0.0,0.0
11:16:41,750758.0,0.0,0.0
11:16:41,750801.0,0.0,0.0
11:16:41,750781.0,0.0,0.0
11:16:41,750768.0,0.0,0.0
11:16:41,750798.0,0.0,0.0
11:16:41,750745.0,0.0,0.0
11:16:41,750819.0,0.0,0.0
11:16:41,750772.0,0.0,0.0
11:16:41,750764.0,0.0,0.0
11:16:41,750792.0,0.0,0.0
11:16:41,750694.0,0.0,0.0
11:16:41,750733.0,0.0,0.0
11:16:41,750741.0,0.0,0.0
11:16:41,750731.0,0.0,0.0
11:16:41,750749.0,0.0,0.0
11:16:41,750691.0,0.0,0.0
11:16:41,750754.0,0.0,0.0
11:16:41,750726.0,0.0,0.0
11:16:41,750700.0,0.0,0.0
11:16:41,750724.0,0.0,0.0
11:16:41,750666.0,0.0,0.0
11:16:41,750718.0,0.0,0.0
11:16:41,750710.0,0.0,0.0
11:16:41,750676.0,0.0,0.0
11:16:41,750701.0,0.0,0.0
11:16:41,750635.0,0.0,0.0
11:16:41,750677.0,0.0,0.0
11:16:41,750644.0,0.0,0.0
11:16:41,750621.0,0.0,0.0
11:16:41,750674.0,0.0,0.0
11:16:41,750632.0,0.0,0.0
11:16:41,750665.0,0.0,0.0
11:16:41,750608.0,0.0,0.0
11:16:41,750628.0,0.0,0.0
11:16:41,750650.0,0.0,0.0
11:16:41,750589.0,0.0,0.0
11:16:41,750624.0,0.0,0.0
11:16:41,750575.0,0.0,0.0
11:16:41,750559.0,0.0,0.0
11:16:41,750522.0,0.0,0.0
11:16:41,750437.0,0.0,0.0
11:16:41,750653.0,0.0,0.0
11:16:41,750730.0,0.0,0.0
11:16:41,750705.0,0.0,0.0
11:16:41,750649.0,0.0,0.0
11:16:41,750534.0,0.0,0.0
11:16:41,750569.0,0.0,0.0
11:16:41,750551.0,0.0,0.0
11:16:41,750539.0,0.0,0.0
11:16:41,750564.0,0.0,0.0
11:16:41,750472.0,0.0,0.0
11:16:41,750506.0,0.0,0.0
11:16:41,750459.0,0.0,0.0
11:16:41,750459.0,0.0,0.0
11:16:41,750492.0,0.0,0.0
11:16:41,750447.0,0.0,0.0
11:16:41,750485.0,0.0,0.0
11:16:41,750439.0,0.0,0.0
11:16:41,750409.0,0.0,0.0
11:16:41,750448.0,0.0,0.0
11:16:41,750423.0,0.0,0.0
11:16:41,750430.0,0.0,0.0
11:16:41,750368.0,0.0,0.0
11:16:41,750374.0,0.0,0.0
11:16:41,750395.0,0.0,0.0
11:16:41,750338.0,0.0,0.0
11:16:41,750381.0,0.0,0.0
11:16:41,750355.0,0.0,0.0
11:16:41,750347.0,0.0,0.0
11:16:41,750357.0,0.0,0.0
11:16:41,750306.0,0.0,0.0
11:16:41,750363.0,0.0,0.0
11:16:41,750292.0,0.0,0.0
11:16:41,750306.0,0.0,0.0
11:16:41,750333.0,0.0,0.0
11:16:41,750322.0,0.0,0.0
11:16:41,750354.0,0.0,0.0
11:16:41,750293.0,0.0,0.0
11:16:41,750298.0,0.0,0.0
11:16:41,750327.0,0.0,0.0
11:16:41,750286.0,0.0,0.0
11:16:41,750334.0,0.0,0.0
11:16:41,750278.0,0.0,0.0
11:16:41,750276.0,0.0,0.0
11:16:41,750281.0,0.0,0.0
11:16:41,750234.0,0.0,0.0
11:16:41,750297.0,0.0,0.0
11:16:41,750244.0,0.0,0.0
11:16:41,750264.0,0.0,0.0
11:16:41,750287.0,0.0,0.0
11:16:41,750204.0,0.0,0.0
11:16:41,750255.0,0.0,0.0
11:16:41,750256.0,0.0,0.0
11:16:41,750231.0,0.0,0.0
11:16:41,750259.0,0.0,0.0
11:16:41,750193.0,0.0,0.0
11:16:41,750255.0,0.0,0.0
11:16:41,750205.0,0.0,0.0
11:16:41,750207.0,0.0,0.0
11:16:41,750221.0,0.0,0.0
11:16:41,750199.0,0.0,0.0
11:16:41,750234.0,0.0,0.0
11:16:41,750182.0,0.0,0.0
11:16:41,750184.0,0.0,0.0
11:16:41,750182.0,0.0,0.0
11:16:41,750119.0,0.0,0.0
11:16:41,750192.0,0.0,0.0
11:16:41,750181.0,0.0,0.0
11:16:41,750180.0,0.0,0.0
11:16:41,750190.0,0.0,0.0
11:16:41,750136.0,0.0,0.0
11:16:41,750213.0,0.0,0.0
11:16:41,750186.0,0.0,0.0
11:16:41,750177.0,0.0,0.0
11:16:41,750194.0,0.0,0.0
11:16:41,750141.0,0.0,0.0
11:16:41,750179.0,0.0,0.0
11:16:41,750113.0,0.0,0.0
11:16:42,750128.0,0.0,0.0
11:16:42,750188.0,0.0,0.0
11:16:42,750139.0,0.0,0.0
11:16:42,750170.0,0.0,0.0
11:16:42,750140.0,0.0,0.0
11:16:42,750141.0,0.0,0.0
11:16:42,750134.0,0.0,0.0
11:16:42,750058.0,0.0,0.0
11:16:42,750134.0,0.0,0.0
11:16:42,750097.0,0.0,0.0
11:16:42,750089.0,0.0,0.0
11:16:42,750064.0,0.0,0.0
11:16:42,750029.0,0.0,0.0
11:16:42,750082.0,0.0,0.0
11:16:42,750040.0,0.0,0.0
11:16:42,750036.0,0.0,0.0
11:16:42,750053.0,0.0,0.0
11:16:42,749993.0,0.0,0.0
11:16:42,750059.0,0.0,0.0
11:16:42,750034.0,0.0,0.0
11:16:42,750000.0,0.0,0.0
11:16:42,750002.0,0.0,0.0
11:16:42,749958.0,0.0,0.0
11:16:42,750024.0,0.0,0.0
11:16:42,749973.0,0.0,0.0
11:16:42,749996.0,0.0,0.0
11:16:42,750006.0,0.0,0.0
11:16:42,749962.0,0.0,0.0
11:16:42,750013.0,0.0,0.0
11:16:42,749975.0,0.0,0.0
11:16:42,749997.0,0.0,0.0
11:16:42,750006.0,0.0,0.0
11:16:42,749928.0,0.0,0.0
11:16:42,749947.0,0.0,0.0
11:16:42,749881.0,0.0,0.0
11:16:42,749871.0,0.0,0.0
11:16:42,749887.0,0.0,0.0
11:16:42,749849.0,0.0,0.0
11:16:42,749909.0,0.0,0.0
11:16:42,749871.0,0.0,0.0
11:16:42,749851.0,0.0,0.0
11:16:42,749825.0,0.0,0.0
11:16:42,749723.0,0.0,0.0
11:16:42,749879.0,0.0,0.0
11:16:42,749994.0,0.0,0.0
11:16:42,750018.0,0.0,0.0
11:16:42,749933.0,0.0,0.0
11:16:42,749806.0,0.0,0.0
11:16:42,749870.0,0.0,0.0
11:16:42,749810.0,0.0,0.0
11:16:42,749776.0,0.0,0.0
11:16:42,749791.0,0.0,0.0
11:16:42,749746.0,0.0,0.0
11:16:42,749793.0,0.0,0.0
11:16:42,749694.0,0.0,0.0
11:16:42,749701.0,0.0,0.0
11:16:42,749746.0,0.0,0.0
11:16:42,749692.0,0.0,0.0
11:16:42,749706.0,0.0,0.0
11:16:42,749646.0,0.0,0.0
11:16:42,749666.0,0.0,0.0
11:16:42,749699.0,0.0,0.0
11:16:42,749624.0,0.0,0.0
11:16:42,749683.0,0.0,0.0
11:16:42,749630.0,0.0,0.0
11:16:42,749618.0,0.0,0.0
11:16:42,749636.0,0.0,0.0
11:16:42,749606.0,0.0,0.0
11:16:42,749637.0,0.0,0.0
11:16:42,749579.0,0.0,0.0
11:16:42,749602.0,0.0,0.0
11:16:42,749602.0,0.0,0.0
11:16:42,749558.0,0.0,0.0
11:16:42,749626.0,0.0,0.0
11:16:42,749568.0,0.0,0.0
11:16:42,749575.0,0.0,0.0
11:16:42,749584.0,0.0,0.0
11:16:42,749534.0,0.0,0.0
11:16:42,749568.0,0.0,0.0
11:16:42,749508.0,0.0,0.0
11:16:42,749504.0,0.0,0.0
11:16:42,749519.0,0.0,0.0
11:16:42,749469.0,0.0,0.0
11:16:42,749498.0,0.0,0.0
11:16:42,749442.0,0.0,0.0
11:16:42,749484.0,0.0,0.0
11:16:42,749496.0,0.0,0.0
11:16:42,749461.0,0.0,0.0
11:16:42,749508.0,0.0,0.0
11:16:42,749456.0,0.0,0.0
11:16:42,749471.0,0.0,0.0
11:16:42,749486.0,0.0,0.0
11:16:42,749473.0,0.0,0.0
11:16:42,749498.0,0.0,0.0
11:16:42,749449.0,0.0,0.0
11:16:42,749439.0,0.0,0.0
11:16:42,749455.0,0.0,0.0
11:16:42,749400.0,0.0,0.0
11:16:42,749436.0,0.0,0.0
11:16:42,749393.0,0.0,0.0
11:16:42,749403.0,0.0,0.0
11:16:42,749414.0,0.0,0.0
11:16:42,749381.0,0.0,0.0
11:16:42,749463.0,0.0,0.0
11:16:42,749403.0,0.0,0.0
11:16:42,749423.0,0.0,0.0
11:16:42,749443.0,0.0,0.0
11:16:42,749394.0,0.0,0.0
11:16:42,749421.0,0.0,0.0
11:16:42,749380.0,0.0,0.0
11:16:42,749427.0,0.0,0.0
11:16:42,749436.0,0.0,0.0
11:16:42,749370.0,0.0,0.0
11:16:42,749414.0,0.0,0.0
11:16:42,749349.0,0.0,0.0
11:16:42,749388.0,0.0,0.0
11:16:42,749376.0,0.0,0.0
11:16:42,749346.0,0.0,0.0
11:16:42,749411.0,0.0,0.0
11:16:42,749376.0,0.0,0.0
11:16:42,749363.0,0.0,0.0
11:16:42,749360.0,0.0,0.0
11:16:42,749326.0,0.0,0.0
11:16:42,749389.0,0.0,0.0
11:16:42,749340.0,0.0,0.0
11:16:43,749364.0,0.0,0.0
11:16:43,749360.0,0.0,0.0
11:16:43,749333.0,0.0,0.0
11:16:43,749339.0,0.0,0.0
11:16:43,749291.0,0.0,0.0
11:16:43,749321.0,0.0,0.0
11:16:43,749326.0,0.0,0.0
11:16:43,749269.0,0.0,0.0
11:16:43,749289.0,0.0,0.0
11:16:43,749278.0,0.0,0.0
11:16:43,749333.0,0.0,0.0
11:16:43,749339.0,0.0,0.0
11:16:43,749317.0,0.0,0.0
11:16:43,749326.0,0.0,0.0
11:16:43,749288.0,0.0,0.0
11:16:43,749313.0,0.0,0.0
11:16:43,749328.0,0.0,0.0
11:16:43,749283.0,0.0,0.0
11:16:43,749331.0,0.0,0.0
11:16:43,749274.0,0.0,0.0
11:16:43,749308.0,0.0,0.0
11:16:43,749301.0,0.0,0.0
11:16:43,749262.0,0.0,0.0
11:16:43,749306.0,0.0,0.0
11:16:43,749233.0,0.0,0.0
11:16:43,749276.0,0.0,0.0
11:16:43,749308.0,0.0,0.0
11:16:43,749208.0,0.0,0.0
11:16:43,749284.0,0.0,0.0
11:16:43,749214.0,0.0,0.0
11:16:43,749247.0,0.0,0.0
11:16:43,749232.0,0.0,0.0
11:16:43,749158.0,0.0,0.0
11:16:43,749236.0,0.0,0.0
11:16:43,749181.0,0.0,0.0
11:16:43,749220.0,0.0,0.0
11:16:43,749203.0,0.0,0.0
11:16:43,749086.0,0.0,0.0
11:16:43,749116.0,0.0,0.0
11:16:43,749187.0,0.0,0.0
11:16:43,749334.0,0.0,0.0
11:16:43,749324.0,0.0,0.0
11:16:43,749190.0,0.0,0.0
11:16:43,749196.0,0.0,0.0
11:16:43,749138.0,0.0,0.0
11:16:43,749163.0,0.0,0.0
11:16:43,749161.0,0.0,0.0
11:16:43,749079.0,0.0,0.0
11:16:43,749121.0,0.0,0.0
11:16:43,749063.0,0.0,0.0
11:16:43,749089.0,0.0,0.0
11:16:43,749099.0,0.0,0.0
11:16:43,749069.0,0.0,0.0
11:16:43,749166.0,0.0,0.0
11:16:43,749116.0,0.0,0.0
11:16:43,749138.0,0.0,0.0
11:16:43,749102.0,0.0,0.0
11:16:43,749108.0,0.0,0.0
11:16:43,749164.0,0.0,0.0
11:16:43,749071.0,0.0,0.0
11:16:43,749054.0,0.0,0.0
11:16:43,749027.0,0.0,0.0
11:16:43,748972.0,0.0,0.0
11:16:43,749014.0,0.0,0.0
11:16:43,748961.0,0.0,0.0
11:16:43,748978.0,0.0,0.0
11:16:43,748993.0,0.0,0.0
11:16:43,748921.0,0.0,0.0
11:16:43,748984.0,0.0,0.0
11:16:43,748938.0,0.0,0.0
11:16:43,748990.0,0.0,0.0
11:16:43,748984.0,0.0,0.0
11:16:43,748976.0,0.0,0.0
11:16:43,749047.0,0.0,0.0
11:16:43,749034.0,0.0,0.0
11:16:43,749058.0,0.0,0.0
11:16:43,749036.0,0.0,0.0
11:16:43,749010.0,0.0,0.0
11:16:43,749056.0,0.0,0.0
11:16:43,748986.0,0.0,0.0
11:16:43,749050.0,0.0,0.0
11:16:43,749100.0,0.0,0.0
11:16:43,749058.0,0.0,0.0
11:16:43,749087.0,0.0,0.0
11:16:43,749054.0,0.0,0.0
11:16:43,749106.0,0.0,0.0
11:16:43,749099.0,0.0,0.0
11:16:43,749091.0,0.0,0.0
11:16:43,749176.0,0.0,0.0
11:16:43,749141.0,0.0,0.0
11:16:43,749176.0,0.0,0.0
11:16:43,749195.0,0.0,0.0
11:16:43,749145.0,0.0,0.0
11:16:43,749180.0,0.0,0.0
11:16:43,749103.0,0.0,0.0
11:16:43,749144.0,0.0,0.0
11:16:43,749159.0,0.0,0.0
11:16:43,749141.0,0.0,0.0
11:16:43,749166.0,0.0,0.0
11:16:43,749159.0,0.0,0.0
11:16:43,749198.0,0.0,0.0
11:16:43,749196.0,0.0,0.0
11:16:43,749190.0,0.0,0.0
11:16:43,749243.0,0.0,0.0
11:16:43,749202.0,0.0,0.0
11:16:43,749249.0,0.0,0.0
11:16:43,749247.0,0.0,0.0
11:16:43,749231.0,0.0,0.0
11:16:43,749300.0,0.0,0.0
11:16:43,749243.0,0.0,0.0
11:16:43,749276.0,0.0,0.0
11:16:43,749248.0,0.0,0.0
11:16:43,749193.0,0.0,0.0
11:16:43,749276.0,0.0,0.0
11:16:43,749263.0,0.0,0.0
11:16:43,749334.0,0.0,0.0
11:16:43,749293.0,0.0,0.0
11:16:43,749252.0,0.0,0.0
11:16:43,749319.0,0.0,0.0
11:16:43,749292.0,0.0,0.0
11:16:43,749349.0,0.0,0.0
11:16:43,749329.0,0.0,0.0
11:16:43,749313.0,0.0,0.0
11:16:43,749327.0,0.0,0.0
11:16:43,749239.0,0.0,0.0
11:16:44,749281.0,0.0,0.0
11:16:44,749250.0,0.0,0.0
11:16:44,749230.0,0.0,0.0
11:16:44,749260.0,0.0,0.0
11:16:44,749181.0,0.0,0.0
11:16:44,749208.0,0.0,0.0
11:16:44,749197.0,0.0,0.0
11:16:44,749171.0,0.0,0.0
11:16:44,749206.0,0.0,0.0
11:16:44,749148.0,0.0,0.0
11:16:44,749183.0,0.0,0.0
11:16:44,749218.0,0.0,0.0
11:16:44,749191.0,0.0,0.0
11:16:44,749248.0,0.0,0.0
11:16:44,749161.0,0.0,0.0
11:16:44,749203.0,0.0,0.0
11:16:44,749153.0,0.0,0.0
11:16:44,749125.0,0.0,0.0
11:16:44,749175.0,0.0,0.0
11:16:44,749121.0,0.0,0.0
11:16:44,749128.0,0.0,0.0
11:16:44,749130.0,0.0,0.0
11:16:44,749118.0,0.0,0.0
11:16:44,749133.0,0.0,0.0
11:16:44,749100.0,0.0,0.0
11:16:44,749151.0,0.0,0.0
11:16:44,749120.0,0.0,0.0
11:16:44,749110.0,0.0,0.0
11:16:44,749148.0,0.0,0.0
11:16:44,749069.0,0.0,0.0
11:16:44,749046.0,0.0,0.0
11:16:44,748939.0,0.0,0.0
11:16:44,748969.0,0.0,0.0
11:16:44,749174.0,0.0,0.0
11:16:44,749172.0,0.0,0.0
11:16:44,749135.0,0.0,0.0
11:16:44,749046.0,0.0,0.0
11:16:44,748991.0,0.0,0.0
11:16:44,749036.0,0.0,0.0
11:16:44,749008.0,0.0,0.0
11:16:44,749031.0,0.0,0.0
11:16:44,749005.0,0.0,0.0
11:16:44,748991.0,0.0,0.0
11:16:44,749023.0,0.0,0.0
11:16:44,748910.0,0.0,0.0
11:16:44,748924.0,0.0,0.0
11:16:44,748896.0,0.0,0.0
11:16:44,748871.0,0.0,0.0
11:16:44,748891.0,0.0,0.0
11:16:44,748817.0,0.0,0.0
11:16:44,748876.0,0.0,0.0
11:16:44,748858.0,0.0,0.0
11:16:44,748799.0,0.0,0.0
11:16:44,748851.0,0.0,0.0
11:16:44,748788.0,0.0,0.0
11:16:44,748804.0,0.0,0.0
11:16:44,748801.0,0.0,0.0
11:16:44,748783.0,0.0,0.0
11:16:44,748824.0,0.0,0.0
11:16:44,748736.0,0.0,0.0
11:16:44,748771.0,0.0,0.0
11:16:44,748746.0,0.0,0.0
11:16:44,748726.0,0.0,0.0
11:16:44,748741.0,0.0,0.0
11:16:44,748691.0,0.0,0.0
11:16:44,748728.0,0.0,0.0
11:16:44,748726.0,0.0,0.0
11:16:44,748729.0,0.0,0.0
11:16:44,748754.0,0.0,0.0
11:16:44,748731.0,0.0,0.0
11:16:44,748794.0,0.0,0.0
11:16:44,748768.0,0.0,0.0
11:16:44,748703.0,0.0,0.0
11:16:44,748711.0,0.0,0.0
11:16:44,748648.0,0.0,0.0
11:16:44,748706.0,0.0,0.0
11:16:44,748695.0,0.0,0.0
11:16:44,748670.0,0.0,0.0
11:16:44,748711.0,0.0,0.0
11:16:44,748634.0,0.0,0.0
11:16:44,748718.0,0.0,0.0
11:16:44,748696.0,0.0,0.0
11:16:44,748663.0,0.0,0.0
11:16:44,748671.0,0.0,0.0
11:16:44,748610.0,0.0,0.0
11:16:44,748664.0,0.0,0.0
11:16:44,748633.0,0.0,0.0
11:16:44,748581.0,0.0,0.0
11:16:44,748605.0,0.0,0.0
11:16:44,748565.0,0.0,0.0
11:16:44,748631.0,0.0,0.0
11:16:44,748618.0,0.0,0.0
11:16:44,748602.0,0.0,0.0
11:16:44,748646.0,0.0,0.0
11:16:44,748594.0,0.0,0.0
11:16:44,748635.0,0.0,0.0
11:16:44,748596.0,0.0,0.0
11:16:44,748576.0,0.0,0.0
11:16:44,748626.0,0.0,0.0
11:16:44,748566.0,0.0,0.0
11:16:44,748591.0,0.0,0.0
11:16:44,748549.0,0.0,0.0
11:16:44,748533.0,0.0,0.0
11:16:44,748619.0,0.0,0.0
11:16:44,748560.0,0.0,0.0
11:16:44,748599.0,0.0,0.0
11:16:44,748579.0,0.0,0.0
11:16:44,748549.0,0.0,0.0
11:16:44,748580.0,0.0,0.0
11:16:44,748515.0,0.0,0.0
11:16:44,748549.0,0.0,0.0
11:16:44,748539.0,0.0,0.0
11:16:44,748507.0,0.0,0.0
11:16:44,748548.0,0.0,0.0
11:16:44,748503.0,0.0,0.0
11:16:44,748527.0,0.0,0.0
11:16:44,748496.0,0.0,0.0
11:16:44,748502.0,0.0,0.0
11:16:44,748544.0,0.0,0.0
11:16:44,748474.0,0.0,0.0
11:16:44,748525.0,0.0,0.0
11:16:44,748482.0,0.0,0.0
11:16:44,748463.0,0.0,0.0
11:16:44,748501.0,0.0,0.0
11:16:44,748471.0,0.0,0.0
11:16:45,748484.0,0.0,0.0
11:16:45,748466.0,0.0,0.0
11:16:45,748444.0,0.0,0.0
11:16:45,748487.0,0.0,0.0
11:16:45,748429.0,0.0,0.0
11:16:45,748478.0,0.0,0.0
11:16:45,748481.0,0.0,0.0
11:16:45,748473.0,0.0,0.0
11:16:45,748483.0,0.0,0.0
11:16:45,748439.0,0.0,0.0
11:16:45,748484.0,0.0,0.0
11:16:45,748432.0,0.0,0.0
11:16:45,748405.0,0.0,0.0
11:16:45,748434.0,0.0,0.0
11:16:45,748378.0,0.0,0.0
11:16:45,748441.0,0.0,0.0
11:16:45,748356.0,0.0,0.0
11:16:45,748318.0,0.0,0.0
11:16:45,748301.0,0.0,0.0
11:16:45,748353.0,0.0,0.0
11:16:45,748541.0,0.0,0.0
11:16:45,748513.0,0.0,0.0
11:16:45,748452.0,0.0,0.0
11:16:45,748458.0,0.0,0.0
11:16:45,748391.0,0.0,0.0
11:16:45,748418.0,0.0,0.0
11:16:45,748405.0,0.0,0.0
11:16:45,748417.0,0.0,0.0
11:16:45,748413.0,0.0,0.0
11:16:45,748360.0,0.0,0.0
11:16:45,748385.0,0.0,0.0
11:16:45,748332.0,0.0,0.0
11:16:45,748346.0,0.0,0.0
11:16:45,748394.0,0.0,0.0
11:16:45,748330.0,0.0,0.0
11:16:45,748394.0,0.0,0.0
11:16:45,748354.0,0.0,0.0
11:16:45,748343.0,0.0,0.0
11:16:45,748372.0,0.0,0.0
11:16:45,748359.0,0.0,0.0
11:16:45,748409.0,0.0,0.0
11:16:45,748371.0,0.0,0.0
11:16:45,748340.0,0.0,0.0
11:16:45,748361.0,0.0,0.0
11:16:45,748316.0,0.0,0.0
11:16:45,748374.0,0.0,0.0
11:16:45,748347.0,0.0,0.0
11:16:45,748354.0,0.0,0.0
11:16:45,748400.0,0.0,0.0
11:16:45,748354.0,0.0,0.0
11:16:45,748386.0,0.0,0.0
11:16:45,748346.0,0.0,0.0
11:16:45,748369.0,0.0,0.0
11:16:45,748438.0,0.0,0.0
11:16:45,748371.0,0.0,0.0
11:16:45,748426.0,0.0,0.0
11:16:45,748411.0,0.0,0.0
11:16:45,748391.0,0.0,0.0
11:16:45,748438.0,0.0,0.0
11:16:45,748406.0,0.0,0.0
11:16:45,748419.0,0.0,0.0
11:16:45,748383.0,0.0,0.0
11:16:45,748376.0,0.0,0.0
11:16:45,748432.0,0.0,0.0
11:16:45,748396.0,0.0,0.0
11:16:45,748452.0,0.0,0.0
11:16:45,748452.0,0.0,0.0
11:16:45,748405.0,0.0,0.0
11:16:45,748457.0,0.0,0.0
11:16:45,748416.0,0.0,0.0
11:16:45,748469.0,0.0,0.0
11:16:45,748436.0,0.0,0.0
11:16:45,748446.0,0.0,0.0
11:16:45,748459.0,0.0,0.0
11:16:45,748435.0,0.0,0.0
11:16:45,748495.0,0.0,0.0
11:16:45,748476.0,0.0,0.0
11:16:45,748476.0,0.0,0.0
11:16:45,748533.0,0.0,0.0
11:16:45,748522.0,0.0,0.0
11:16:45,748596.0,0.0,0.0
11:16:45,748543.0,0.0,0.0
11:16:45,748531.0,0.0,0.0
11:16:45,748609.0,0.0,0.0
11:16:45,748549.0,0.0,0.0
11:16:45,748609.0,0.0,0.0
11:16:45,748576.0,0.0,0.0
11:16:45,748566.0,0.0,0.0
11:16:45,748607.0,0.0,0.0
11:16:45,748569.0,0.0,0.0
11:16:45,748649.0,0.0,0.0
11:16:45,748613.0,0.0,0.0
11:16:45,748612.0,0.0,0.0
11:16:45,748683.0,0.0,0.0
11:16:45,748631.0,0.0,0.0
11:16:45,748675.0,0.0,0.0
11:16:45,748664.0,0.0,0.0
11:16:45,748678.0,0.0,0.0
11:16:45,748725.0,0.0,0.0
11:16:45,748688.0,0.0,0.0
11:16:45,748756.0,0.0,0.0
11:16:45,748731.0,0.0,0.0
11:16:45,748739.0,0.0,0.0
11:16:45,748764.0,0.0,0.0
11:16:45,748716.0,0.0,0.0
11:16:45,748796.0,0.0,0.0
11:16:45,748791.0,0.0,0.0
11:16:45,748788.0,0.0,0.0
11:16:45,748804.0,0.0,0.0
11:16:45,748759.0,0.0,0.0
11:16:45,748814.0,0.0,0.0
11:16:45,748775.0,0.0,0.0
11:16:45,748791.0,0.0,0.0
11:16:45,748843.0,0.0,0.0
11:16:45,748784.0,0.0,0.0
11:16:45,748844.0,0.0,0.0
11:16:45,748818.0,0.0,0.0
11:16:45,748852.0,0.0,0.0
11:16:45,748892.0,0.0,0.0
11:16:45,748862.0,0.0,0.0
11:16:45,748913.0,0.0,0.0
11:16:45,748880.0,0.0,0.0
11:16:45,748898.0,0.0,0.0
11:16:45,748899.0,0.0,0.0
11:16:45,748896.0,0.0,0.0
11:16:46,748940.0,0.0,0.0
11:16:46,748873.0,0.0,0.0
11:16:46,748837.0,0.0,0.0
11:16:46,748889.0,0.0,0.0
11:16:46,748991.0,0.0,0.0
11:16:46,749151.0,0.0,0.0
11:16:46,749081.0,0.0,0.0
11:16:46,749048.0,0.0,0.0
11:16:46,749038.0,0.0,0.0
11:16:46,748994.0,0.0,0.0
11:16:46,749054.0,0.0,0.0
11:16:46,749033.0,0.0,0.0
11:16:46,749028.0,0.0,0.0
11:16:46,749032.0,0.0,0.0
11:16:46,748986.0,0.0,0.0
11:16:46,749019.0,0.0,0.0
11:16:46,748999.0,0.0,0.0
11:16:46,749037.0,0.0,0.0
11:16:46,749064.0,0.0,0.0
11:16:46,749056.0,0.0,0.0
11:16:46,749108.0,0.0,0.0
11:16:46,749086.0,0.0,0.0
11:16:46,749105.0,0.0,0.0
11:16:46,749107.0,0.0,0.0
11:16:46,749051.0,0.0,0.0
11:16:46,749101.0,0.0,0.0
11:16:46,749074.0,0.0,0.0
11:16:46,749087.0,0.0,0.0
11:16:46,749138.0,0.0,0.0
11:16:46,749069.0,0.0,0.0
11:16:46,749116.0,0.0,0.0
11:16:46,749099.0,0.0,0.0
11:16:46,749098.0,0.0,0.0
11:16:46,749130.0,0.0,0.0
11:16:46,749108.0,0.0,0.0
11:16:46,749174.0,0.0,0.0
11:16:46,749151.0,0.0,0.0
11:16:46,749155.0,0.0,0.0
11:16:46,749199.0,0.0,0.0
11:16:46,749156.0,0.0,0.0
11:16:46,749239.0,0.0,0.0
11:16:46,749189.0,0.0,0.0
11:16:46,749201.0,0.0,0.0
11:16:46,749212.0,0.0,0.0
11:16:46,749183.0,0.0,0.0
11:16:46,749246.0,0.0,0.0
11:16:46,749203.0,0.0,0.0
11:16:46,749199.0,0.0,0.0
11:16:46,749237.0,0.0,0.0
11:16:46,749201.0,0.0,0.0
11:16:46,749273.0,0.0,0.0
11:16:46,749235.0,0.0,0.0
11:16:46,749248.0,0.0,0.0
11:16:46,749306.0,0.0,0.0
11:16:46,749253.0,0.0,0.0
11:16:46,749311.0,0.0,0.0
11:16:46,749289.0,0.0,0.0
11:16:46,749336.0,0.0,0.0
11:16:46,749391.0,0.0,0.0
11:16:46,749293.0,0.0,0.0
11:16:46,749317.0,0.0,0.0
11:16:46,749326.0,0.0,0.0
11:16:46,749322.0,0.0,0.0
11:16:46,749373.0,0.0,0.0
11:16:46,749351.0,0.0,0.0
11:16:46,749403.0,0.0,0.0
11:16:46,749351.0,0.0,0.0
11:16:46,749369.0,0.0,0.0
11:16:46,749431.0,0.0,0.0
11:16:46,749371.0,0.0,0.0
11:16:46,749426.0,0.0,0.0
11:16:46,749424.0,0.0,0.0
11:16:46,749426.0,0.0,0.0
11:16:46,749451.0,0.0,0.0
11:16:46,749444.0,0.0,0.0
11:16:46,749488.0,0.0,0.0
11:16:46,749462.0,0.0,0.0
11:16:46,749491.0,0.0,0.0
11:16:46,749548.0,0.0,0.0
11:16:46,749494.0,0.0,0.0
11:16:46,749542.0,0.0,0.0
11:16:46,749496.0,0.0,0.0
11:16:46,749503.0,0.0,0.0
11:16:46,749518.0,0.0,0.0
11:16:46,749488.0,0.0,0.0
11:16:46,749561.0,0.0,0.0
11:16:46,749528.0,0.0,0.0
11:16:46,749555.0,0.0,0.0
11:16:46,749578.0,0.0,0.0
11:16:46,749553.0,0.0,0.0
11:16:46,749599.0,0.0,0.0
11:16:46,749581.0,0.0,0.0
11:16:46,749628.0,0.0,0.0
11:16:46,749661.0,0.0,0.0
11:16:46,749615.0,0.0,0.0
11:16:46,749682.0,0.0,0.0
11:16:46,749629.0,0.0,0.0
11:16:46,749652.0,0.0,0.0
11:16:46,749705.0,0.0,0.0
11:16:46,749645.0,0.0,0.0
11:16:46,749706.0,0.0,0.0
11:16:46,749660.0,0.0,0.0
11:16:46,749689.0,0.0,0.0
11:16:46,749726.0,0.0,0.0
11:16:46,749634.0,0.0,0.0
11:16:46,749693.0,0.0,0.0
11:16:46,749644.0,0.0,0.0
11:16:46,749695.0,0.0,0.0
11:16:46,749756.0,0.0,0.0
11:16:46,749703.0,0.0,0.0
11:16:46,749789.0,0.0,0.0
11:16:46,749692.0,0.0,0.0
11:16:46,749666.0,0.0,0.0
11:16:46,749704.0,0.0,0.0
11:16:46,749768.0,0.0,0.0
11:16:46,749952.0,0.0,0.0
11:16:46,749928.0,0.0,0.0
11:16:46,749878.0,0.0,0.0
11:16:46,749854.0,0.0,0.0
11:16:46,749781.0,0.0,0.0
11:16:46,749806.0,0.0,0.0
11:16:46,749765.0,0.0,0.0
11:16:46,749784.0,0.0,0.0
11:16:46,749784.0,0.0,0.0
11:16:46,749766.0,0.0,0.0
11:16:47,749833.0,0.0,0.0
11:16:47,749783.0,0.0,0.0
11:16:47,749793.0,0.0,0.0
11:16:47,749808.0,0.0,0.0
11:16:47,749801.0,0.0,0.0
11:16:47,749877.0,0.0,0.0
11:16:47,749803.0,0.0,0.0
11:16:47,749827.0,0.0,0.0
11:16:47,749847.0,0.0,0.0
11:16:47,749796.0,0.0,0.0
11:16:47,749826.0,0.0,0.0
11:16:47,749764.0,0.0,0.0
11:16:47,749783.0,0.0,0.0
11:16:47,749805.0,0.0,0.0
11:16:47,749769.0,0.0,0.0
11:16:47,749822.0,0.0,0.0
11:16:47,749773.0,0.0,0.0
11:16:47,749773.0,0.0,0.0
11:16:47,749798.0,0.0,0.0
11:16:47,749719.0,0.0,0.0
11:16:47,749777.0,0.0,0.0
11:16:47,749746.0,0.0,0.0
11:16:47,749777.0,0.0,0.0
11:16:47,749796.0,0.0,0.0
11:16:47,749758.0,0.0,0.0
11:16:47,749791.0,0.0,0.0
11:16:47,749728.0,0.0,0.0
11:16:47,749781.0,0.0,0.0
11:16:47,749793.0,0.0,0.0
11:16:47,749716.0,0.0,0.0
11:16:47,749783.0,0.0,0.0
11:16:47,749749.0,0.0,0.0
11:16:47,749779.0,0.0,0.0
11:16:47,749805.0,0.0,0.0
11:16:47,749761.0,0.0,0.0
11:16:47,749786.0,0.0,0.0
11:16:47,749741.0,0.0,0.0
11:16:47,749770.0,0.0,0.0
11:16:47,749759.0,0.0,0.0
11:16:47,749704.0,0.0,0.0
11:16:47,749771.0,0.0,0.0
11:16:47,749708.0,0.0,0.0
11:16:47,749724.0,0.0,0.0
11:16:47,749725.0,0.0,0.0
11:16:47,749679.0,0.0,0.0
11:16:47,749750.0,0.0,0.0
11:16:47,749699.0,0.0,0.0
11:16:47,749734.0,0.0,0.0
11:16:47,749756.0,0.0,0.0
11:16:47,749719.0,0.0,0.0
11:16:47,749824.0,0.0,0.0
11:16:47,749769.0,0.0,0.0
11:16:47,749772.0,0.0,0.0
11:16:47,749769.0,0.0,0.0
11:16:47,749739.0,0.0,0.0
11:16:47,749816.0,0.0,0.0
11:16:47,749783.0,0.0,0.0
11:16:47,749789.0,0.0,0.0
11:16:47,749797.0,0.0,0.0
11:16:47,749739.0,0.0,0.0
11:16:47,749789.0,0.0,0.0
11:16:47,749749.0,0.0,0.0
11:16:47,749751.0,0.0,0.0
11:16:47,749743.0,0.0,0.0
11:16:47,749712.0,0.0,0.0
11:16:47,749754.0,0.0,0.0
11:16:47,749696.0,0.0,0.0
11:16:47,749763.0,0.0,0.0
11:16:47,749793.0,0.0,0.0
11:16:47,749746.0,0.0,0.0
11:16:47,749815.0,0.0,0.0
11:16:47,749759.0,0.0,0.0
11:16:47,749783.0,0.0,0.0
11:16:47,749813.0,0.0,0.0
11:16:47,749789.0,0.0,0.0
11:16:47,749824.0,0.0,0.0
11:16:47,749766.0,0.0,0.0
11:16:47,749818.0,0.0,0.0
11:16:47,749779.0,0.0,0.0
11:16:47,749751.0,0.0,0.0
11:16:47,749786.0,0.0,0.0
11:16:47,749721.0,0.0,0.0
11:16:47,749773.0,0.0,0.0
11:16:47,749764.0,0.0,0.0
11:16:47,749727.0,0.0,0.0
11:16:47,749767.0,0.0,0.0
11:16:47,749730.0,0.0,0.0
11:16:47,749763.0,0.0,0.0
11:16:47,749756.0,0.0,0.0
11:16:47,749715.0,0.0,0.0
11:16:47,749783.0,0.0,0.0
11:16:47,749741.0,0.0,0.0
11:16:47,749751.0,0.0,0.0
11:16:47,749758.0,0.0,0.0
11:16:47,749709.0,0.0,0.0
11:16:47,749778.0,0.0,0.0
11:16:47,749733.0,0.0,0.0
11:16:47,749691.0,0.0,0.0
11:16:47,749575.0,0.0,0.0
11:16:47,749543.0,0.0,0.0
11:16:47,749757.0,0.0,0.0
11:16:47,749803.0,0.0,0.0
11:16:47,749805.0,0.0,0.0
11:16:47,749742.0,0.0,0.0
11:16:47,749674.0,0.0,0.0
11:16:47,749727.0,0.0,0.0
11:16:47,749673.0,0.0,0.0
11:16:47,749699.0,0.0,0.0
11:16:47,749708.0,0.0,0.0
11:16:47,749689.0,0.0,0.0
11:16:47,749709.0,0.0,0.0
11:16:47,749684.0,0.0,0.0
11:16:47,749722.0,0.0,0.0
11:16:47,749693.0,0.0,0.0
11:16:47,749603.0,0.0,0.0
11:16:47,749654.0,0.0,0.0
11:16:47,749611.0,0.0,0.0
11:16:47,749643.0,0.0,0.0
11:16:47,749633.0,0.0,0.0
11:16:47,749609.0,0.0,0.0
11:16:47,749643.0,0.0,0.0
11:16:47,749589.0,0.0,0.0
11:16:47,749596.0,0.0,0.0
11:16:47,749574.0,0.0,0.0
11:16:47,749560.0,0.0,0.0
11:16:48,749625.0,0.0,0.0
11:16:48,749577.0,0.0,0.0
11:16:48,749606.0,0.0,0.0
11:16:48,749559.0,0.0,0.0
11:16:48,749516.0,0.0,0.0
11:16:48,749559.0,0.0,0.0
11:16:48,749536.0,0.0,0.0
11:16:48,749563.0,0.0,0.0
11:16:48,749563.0,0.0,0.0
11:16:48,749518.0,0.0,0.0
11:16:48,749566.0,0.0,0.0
11:16:48,749512.0,0.0,0.0
11:16:48,749575.0,0.0,0.0
11:16:48,749561.0,0.0,0.0
11:16:48,749489.0,0.0,0.0
11:16:48,749511.0,0.0,0.0
11:16:48,749479.0,0.0,0.0
11:16:48,749521.0,0.0,0.0
11:16:48,749498.0,0.0,0.0
11:16:48,749474.0,0.0,0.0
11:16:48,749514.0,0.0,0.0
11:16:48,749453.0,0.0,0.0
11:16:48,749511.0,0.0,0.0
11:16:48,749496.0,0.0,0.0
11:16:48,749458.0,0.0,0.0
11:16:48,749486.0,0.0,0.0
11:16:48,749443.0,0.0,0.0
11:16:48,749470.0,0.0,0.0
11:16:48,749454.0,0.0,0.0
11:16:48,749444.0,0.0,0.0
11:16:48,749483.0,0.0,0.0
11:16:48,749431.0,0.0,0.0
11:16:48,749465.0,0.0,0.0
11:16:48,749476.0,0.0,0.0
11:16:48,749440.0,0.0,0.0
11:16:48,749469.0,0.0,0.0
11:16:48,749429.0,0.0,0.0
11:16:48,749455.0,0.0,0.0
11:16:48,749445.0,0.0,0.0
11:16:48,749403.0,0.0,0.0
11:16:48,749483.0,0.0,0.0
11:16:48,749411.0,0.0,0.0
11:16:48,749456.0,0.0,0.0
11:16:48,749444.0,0.0,0.0
11:16:48,749431.0,0.0,0.0
11:16:48,749451.0,0.0,0.0
11:16:48,749413.0,0.0,0.0
11:16:48,749452.0,0.0,0.0
11:16:48,749421.0,0.0,0.0
11:16:48,749435.0,0.0,0.0
11:16:48,749477.0,0.0,0.0
11:16:48,749388.0,0.0,0.0
11:16:48,749409.0,0.0,0.0
11:16:48,749413.0,0.0,0.0
11:16:48,749419.0,0.0,0.0
11:16:48,749443.0,0.0,0.0
11:16:48,749372.0,0.0,0.0
11:16:48,749421.0,0.0,0.0
11:16:48,749406.0,0.0,0.0
11:16:48,749401.0,0.0,0.0
11:16:48,749437.0,0.0,0.0
11:16:48,749388.0,0.0,0.0
11:16:48,749416.0,0.0,0.0
11:16:48,749416.0,0.0,0.0
11:16:48,749381.0,0.0,0.0
11:16:48,749420.0,0.0,0.0
11:16:48,749377.0,0.0,0.0
11:16:48,749418.0,0.0,0.0
11:16:48,749378.0,0.0,0.0
11:16:48,749353.0,0.0,0.0
11:16:48,749378.0,0.0,0.0
