TimeStramp,ECG,SpO2,Respiration
11:13:00,561264.0,0.0,0.0
11:13:00,561356.0,0.0,0.0
11:13:00,561206.0,0.0,0.0
11:13:00,561423.0,0.0,0.0
11:13:00,561175.0,0.0,0.0
11:13:00,561374.0,0.0,0.0
11:13:00,561282.0,0.0,0.0
11:13:00,561274.0,0.0,0.0
11:13:00,561319.0,0.0,0.0
11:13:00,561296.0,0.0,0.0
11:13:00,561241.0,0.0,0.0
11:13:00,561392.0,0.0,0.0
11:13:00,561197.0,0.0,0.0
11:13:00,561408.0,0.0,0.0
11:13:00,561211.0,0.0,0.0
11:13:00,561399.0,0.0,0.0
11:13:00,561367.0,0.0,0.0
11:13:00,561323.0,0.0,0.0
11:13:00,561464.0,0.0,0.0
11:13:00,561313.0,0.0,0.0
11:13:00,561393.0,0.0,0.0
11:13:00,561455.0,0.0,0.0
11:13:00,561379.0,0.0,0.0
11:13:00,561529.0,0.0,0.0
11:13:00,561389.0,0.0,0.0
11:13:00,561440.0,0.0,0.0
11:13:00,561501.0,0.0,0.0
11:13:00,561333.0,0.0,0.0
11:13:00,561598.0,0.0,0.0
11:13:00,561332.0,0.0,0.0
11:13:00,561536.0,0.0,0.0
11:13:00,561406.0,0.0,0.0
11:13:00,561483.0,0.0,0.0
11:13:00,561526.0,0.0,0.0
11:13:00,561420.0,0.0,0.0
11:13:00,561437.0,0.0,0.0
11:13:00,561553.0,0.0,0.0
11:13:00,561384.0,0.0,0.0
11:13:00,561650.0,0.0,0.0
11:13:00,561387.0,0.0,0.0
11:13:00,561562.0,0.0,0.0
11:13:00,561505.0,0.0,0.0
11:13:00,561450.0,0.0,0.0
11:13:00,561614.0,0.0,0.0
11:13:00,561518.0,0.0,0.0
11:13:00,561581.0,0.0,0.0
11:13:00,561583.0,0.0,0.0
11:13:00,561539.0,0.0,0.0
11:13:00,561702.0,0.0,0.0
11:13:00,561611.0,0.0,0.0
11:13:00,561628.0,0.0,0.0
11:13:00,561726.0,0.0,0.0
11:13:00,561520.0,0.0,0.0
11:13:00,561803.0,0.0,0.0
11:13:00,561554.0,0.0,0.0
11:13:00,561786.0,0.0,0.0
11:13:00,561714.0,0.0,0.0
11:13:00,561704.0,0.0,0.0
11:13:00,561774.0,0.0,0.0
11:13:00,561733.0,0.0,0.0
11:13:00,561764.0,0.0,0.0
11:13:00,561898.0,0.0,0.0
11:13:00,561748.0,0.0,0.0
11:13:00,562011.0,0.0,0.0
11:13:00,561809.0,0.0,0.0
11:13:00,562017.0,0.0,0.0
11:13:00,561878.0,0.0,0.0
11:13:00,561736.0,0.0,0.0
11:13:00,561816.0,0.0,0.0
11:13:00,561743.0,0.0,0.0
11:13:00,561834.0,0.0,0.0
11:13:00,561911.0,0.0,0.0
11:13:00,561891.0,0.0,0.0
11:13:00,562028.0,0.0,0.0
11:13:00,561914.0,0.0,0.0
11:13:00,561924.0,0.0,0.0
11:13:00,561963.0,0.0,0.0
11:13:00,561751.0,0.0,0.0
11:13:00,562016.0,0.0,0.0
11:13:00,561793.0,0.0,0.0
11:13:00,561963.0,0.0,0.0
11:13:00,561846.0,0.0,0.0
11:13:00,561886.0,0.0,0.0
11:13:00,561942.0,0.0,0.0
11:13:00,561899.0,0.0,0.0
11:13:00,561894.0,0.0,0.0
11:13:00,561996.0,0.0,0.0
11:13:00,561766.0,0.0,0.0
11:13:00,562033.0,0.0,0.0
11:13:00,561773.0,0.0,0.0
11:13:00,561946.0,0.0,0.0
11:13:00,561881.0,0.0,0.0
11:13:00,561839.0,0.0,0.0
11:13:00,561939.0,0.0,0.0
11:13:00,561803.0,0.0,0.0
11:13:00,561874.0,0.0,0.0
11:13:00,561878.0,0.0,0.0
11:13:00,561805.0,0.0,0.0
11:13:00,561932.0,0.0,0.0
11:13:00,561836.0,0.0,0.0
11:13:00,561893.0,0.0,0.0
11:13:00,561915.0,0.0,0.0
11:13:00,561759.0,0.0,0.0
11:13:00,562036.0,0.0,0.0
11:13:00,561776.0,0.0,0.0
11:13:00,561969.0,0.0,0.0
11:13:00,561869.0,0.0,0.0
11:13:00,561897.0,0.0,0.0
11:13:00,561923.0,0.0,0.0
11:13:00,561851.0,0.0,0.0
11:13:00,561864.0,0.0,0.0
11:13:00,561961.0,0.0,0.0
11:13:00,561775.0,0.0,0.0
11:13:00,562016.0,0.0,0.0
11:13:00,561732.0,0.0,0.0
11:13:00,561901.0,0.0,0.0
11:13:00,561852.0,0.0,0.0
11:13:00,561827.0,0.0,0.0
11:13:00,561941.0,0.0,0.0
11:13:00,561753.0,0.0,0.0
11:13:00,561872.0,0.0,0.0
11:13:00,561869.0,0.0,0.0
11:13:00,561797.0,0.0,0.0
11:13:00,561920.0,0.0,0.0
11:13:00,561818.0,0.0,0.0
11:13:01,561875.0,0.0,0.0
11:13:01,561898.0,0.0,0.0
11:13:01,561681.0,0.0,0.0
11:13:01,561969.0,0.0,0.0
11:13:01,561705.0,0.0,0.0
11:13:01,561898.0,0.0,0.0
11:13:01,561784.0,0.0,0.0
11:13:01,561774.0,0.0,0.0
11:13:01,561879.0,0.0,0.0
11:13:01,561841.0,0.0,0.0
11:13:01,561772.0,0.0,0.0
11:13:01,561864.0,0.0,0.0
11:13:01,561651.0,0.0,0.0
11:13:01,561956.0,0.0,0.0
11:13:01,561766.0,0.0,0.0
11:13:01,561904.0,0.0,0.0
11:13:01,561836.0,0.0,0.0
11:13:01,561812.0,0.0,0.0
11:13:01,561948.0,0.0,0.0
11:13:01,561835.0,0.0,0.0
11:13:01,561906.0,0.0,0.0
11:13:01,561932.0,0.0,0.0
11:13:01,561848.0,0.0,0.0
11:13:01,561998.0,0.0,0.0
11:13:01,561899.0,0.0,0.0
11:13:01,561954.0,0.0,0.0
11:13:01,562055.0,0.0,0.0
11:13:01,561764.0,0.0,0.0
11:13:01,561963.0,0.0,0.0
11:13:01,561766.0,0.0,0.0
11:13:01,561976.0,0.0,0.0
11:13:01,561990.0,0.0,0.0
11:13:01,562013.0,0.0,0.0
11:13:01,562083.0,0.0,0.0
11:13:01,561988.0,0.0,0.0
11:13:01,561974.0,0.0,0.0
11:13:01,562049.0,0.0,0.0
11:13:01,561818.0,0.0,0.0
11:13:01,562086.0,0.0,0.0
11:13:01,561853.0,0.0,0.0
11:13:01,562046.0,0.0,0.0
11:13:01,562030.0,0.0,0.0
11:13:01,561981.0,0.0,0.0
11:13:01,562100.0,0.0,0.0
11:13:01,561959.0,0.0,0.0
11:13:01,562018.0,0.0,0.0
11:13:01,562022.0,0.0,0.0
11:13:01,561948.0,0.0,0.0
11:13:01,562079.0,0.0,0.0
11:13:01,561926.0,0.0,0.0
11:13:01,561959.0,0.0,0.0
11:13:01,562041.0,0.0,0.0
11:13:01,561821.0,0.0,0.0
11:13:01,562074.0,0.0,0.0
11:13:01,561790.0,0.0,0.0
11:13:01,561981.0,0.0,0.0
11:13:01,561894.0,0.0,0.0
11:13:01,561935.0,0.0,0.0
11:13:01,561983.0,0.0,0.0
11:13:01,561900.0,0.0,0.0
11:13:01,561874.0,0.0,0.0
11:13:01,561934.0,0.0,0.0
11:13:01,561788.0,0.0,0.0
11:13:01,562038.0,0.0,0.0
11:13:01,561771.0,0.0,0.0
11:13:01,561965.0,0.0,0.0
11:13:01,561936.0,0.0,0.0
11:13:01,561908.0,0.0,0.0
11:13:01,562042.0,0.0,0.0
11:13:01,561889.0,0.0,0.0
11:13:01,561903.0,0.0,0.0
11:13:01,561906.0,0.0,0.0
11:13:01,561846.0,0.0,0.0
11:13:01,561981.0,0.0,0.0
11:13:01,561829.0,0.0,0.0
11:13:01,561864.0,0.0,0.0
11:13:01,561948.0,0.0,0.0
11:13:01,561808.0,0.0,0.0
11:13:01,562043.0,0.0,0.0
11:13:01,561783.0,0.0,0.0
11:13:01,561982.0,0.0,0.0
11:13:01,561874.0,0.0,0.0
11:13:01,561883.0,0.0,0.0
11:13:01,561948.0,0.0,0.0
11:13:01,561891.0,0.0,0.0
11:13:01,561871.0,0.0,0.0
11:13:01,561969.0,0.0,0.0
11:13:01,561791.0,0.0,0.0
11:13:01,562024.0,0.0,0.0
11:13:01,561734.0,0.0,0.0
11:13:01,561888.0,0.0,0.0
11:13:01,561829.0,0.0,0.0
11:13:01,561761.0,0.0,0.0
11:13:01,561891.0,0.0,0.0
11:13:01,561732.0,0.0,0.0
11:13:01,561807.0,0.0,0.0
11:13:01,561766.0,0.0,0.0
11:13:01,561660.0,0.0,0.0
11:13:01,561837.0,0.0,0.0
11:13:01,561695.0,0.0,0.0
11:13:01,561731.0,0.0,0.0
11:13:01,561816.0,0.0,0.0
11:13:01,561669.0,0.0,0.0
11:13:01,561906.0,0.0,0.0
11:13:01,561636.0,0.0,0.0
11:13:01,561875.0,0.0,0.0
11:13:01,561810.0,0.0,0.0
11:13:01,561814.0,0.0,0.0
11:13:01,561708.0,0.0,0.0
11:13:01,561603.0,0.0,0.0
11:13:01,561624.0,0.0,0.0
11:13:01,561778.0,0.0,0.0
11:13:01,561642.0,0.0,0.0
11:13:01,561911.0,0.0,0.0
11:13:01,561621.0,0.0,0.0
11:13:01,561762.0,0.0,0.0
11:13:01,561684.0,0.0,0.0
11:13:01,561646.0,0.0,0.0
11:13:01,561729.0,0.0,0.0
11:13:01,561627.0,0.0,0.0
11:13:01,561721.0,0.0,0.0
11:13:01,561676.0,0.0,0.0
11:13:01,561574.0,0.0,0.0
11:13:01,561743.0,0.0,0.0
11:13:01,561643.0,0.0,0.0
11:13:02,561666.0,0.0,0.0
11:13:02,561740.0,0.0,0.0
11:13:02,561533.0,0.0,0.0
11:13:02,561776.0,0.0,0.0
11:13:02,561531.0,0.0,0.0
11:13:02,561735.0,0.0,0.0
11:13:02,561603.0,0.0,0.0
11:13:02,561598.0,0.0,0.0
11:13:02,561621.0,0.0,0.0
11:13:02,561554.0,0.0,0.0
11:13:02,561528.0,0.0,0.0
11:13:02,561633.0,0.0,0.0
11:13:02,561401.0,0.0,0.0
11:13:02,561658.0,0.0,0.0
11:13:02,561389.0,0.0,0.0
11:13:02,561592.0,0.0,0.0
11:13:02,561495.0,0.0,0.0
11:13:02,561489.0,0.0,0.0
11:13:02,561603.0,0.0,0.0
11:13:02,561464.0,0.0,0.0
11:13:02,561568.0,0.0,0.0
11:13:02,561588.0,0.0,0.0
11:13:02,561432.0,0.0,0.0
11:13:02,561590.0,0.0,0.0
11:13:02,561474.0,0.0,0.0
11:13:02,561517.0,0.0,0.0
11:13:02,561592.0,0.0,0.0
11:13:02,561394.0,0.0,0.0
11:13:02,561619.0,0.0,0.0
11:13:02,561364.0,0.0,0.0
11:13:02,561581.0,0.0,0.0
11:13:02,561485.0,0.0,0.0
11:13:02,561516.0,0.0,0.0
11:13:02,561554.0,0.0,0.0
11:13:02,561471.0,0.0,0.0
11:13:02,561464.0,0.0,0.0
11:13:02,561563.0,0.0,0.0
11:13:02,561366.0,0.0,0.0
11:13:02,561631.0,0.0,0.0
11:13:02,561369.0,0.0,0.0
11:13:02,561598.0,0.0,0.0
11:13:02,561526.0,0.0,0.0
11:13:02,561470.0,0.0,0.0
11:13:02,561621.0,0.0,0.0
11:13:02,561490.0,0.0,0.0
11:13:02,561568.0,0.0,0.0
11:13:02,561551.0,0.0,0.0
11:13:02,561417.0,0.0,0.0
11:13:02,561561.0,0.0,0.0
11:13:02,561461.0,0.0,0.0
11:13:02,561501.0,0.0,0.0
11:13:02,561531.0,0.0,0.0
11:13:02,561338.0,0.0,0.0
11:13:02,561554.0,0.0,0.0
11:13:02,561329.0,0.0,0.0
11:13:02,561503.0,0.0,0.0
11:13:02,561395.0,0.0,0.0
11:13:02,561454.0,0.0,0.0
11:13:02,561487.0,0.0,0.0
11:13:02,561424.0,0.0,0.0
11:13:02,561444.0,0.0,0.0
11:13:02,561563.0,0.0,0.0
11:13:02,561375.0,0.0,0.0
11:13:02,561626.0,0.0,0.0
11:13:02,561320.0,0.0,0.0
11:13:02,561388.0,0.0,0.0
11:13:02,561255.0,0.0,0.0
11:13:02,561240.0,0.0,0.0
11:13:02,561393.0,0.0,0.0
11:13:02,561389.0,0.0,0.0
11:13:02,561517.0,0.0,0.0
11:13:02,561467.0,0.0,0.0
11:13:02,561344.0,0.0,0.0
11:13:02,561463.0,0.0,0.0
11:13:02,561314.0,0.0,0.0
11:13:02,561341.0,0.0,0.0
11:13:02,561404.0,0.0,0.0
11:13:02,561196.0,0.0,0.0
11:13:02,561446.0,0.0,0.0
11:13:02,561178.0,0.0,0.0
11:13:02,561409.0,0.0,0.0
11:13:02,561294.0,0.0,0.0
11:13:02,561283.0,0.0,0.0
11:13:02,561343.0,0.0,0.0
11:13:02,561266.0,0.0,0.0
11:13:02,561242.0,0.0,0.0
11:13:02,561318.0,0.0,0.0
11:13:02,561101.0,0.0,0.0
11:13:02,561355.0,0.0,0.0
11:13:02,561091.0,0.0,0.0
11:13:02,561231.0,0.0,0.0
11:13:02,561130.0,0.0,0.0
11:13:02,561104.0,0.0,0.0
11:13:02,561233.0,0.0,0.0
11:13:02,561019.0,0.0,0.0
11:13:02,561084.0,0.0,0.0
11:13:02,561079.0,0.0,0.0
11:13:02,560997.0,0.0,0.0
11:13:02,561125.0,0.0,0.0
11:13:02,561021.0,0.0,0.0
11:13:02,561057.0,0.0,0.0
11:13:02,561089.0,0.0,0.0
11:13:02,560924.0,0.0,0.0
11:13:02,561170.0,0.0,0.0
11:13:02,560933.0,0.0,0.0
11:13:02,561149.0,0.0,0.0
11:13:02,561043.0,0.0,0.0
11:13:02,561028.0,0.0,0.0
11:13:02,561059.0,0.0,0.0
11:13:02,560973.0,0.0,0.0
11:13:02,561008.0,0.0,0.0
11:13:02,561103.0,0.0,0.0
11:13:02,560833.0,0.0,0.0
11:13:02,561085.0,0.0,0.0
11:13:02,560854.0,0.0,0.0
11:13:02,561041.0,0.0,0.0
11:13:02,560977.0,0.0,0.0
11:13:02,560945.0,0.0,0.0
11:13:02,561072.0,0.0,0.0
11:13:02,560913.0,0.0,0.0
11:13:02,560996.0,0.0,0.0
11:13:02,560983.0,0.0,0.0
11:13:02,560908.0,0.0,0.0
11:13:02,561036.0,0.0,0.0
11:13:02,560922.0,0.0,0.0
11:13:03,560945.0,0.0,0.0
11:13:03,560999.0,0.0,0.0
11:13:03,560816.0,0.0,0.0
11:13:03,561035.0,0.0,0.0
11:13:03,560741.0,0.0,0.0
11:13:03,560930.0,0.0,0.0
11:13:03,560821.0,0.0,0.0
11:13:03,560827.0,0.0,0.0
11:13:03,560828.0,0.0,0.0
11:13:03,560794.0,0.0,0.0
11:13:03,560763.0,0.0,0.0
11:13:03,560861.0,0.0,0.0
11:13:03,560691.0,0.0,0.0
11:13:03,560902.0,0.0,0.0
11:13:03,560641.0,0.0,0.0
11:13:03,560830.0,0.0,0.0
11:13:03,560696.0,0.0,0.0
11:13:03,560663.0,0.0,0.0
11:13:03,560809.0,0.0,0.0
11:13:03,560659.0,0.0,0.0
11:13:03,560778.0,0.0,0.0
11:13:03,560748.0,0.0,0.0
11:13:03,560643.0,0.0,0.0
11:13:03,560772.0,0.0,0.0
11:13:03,560611.0,0.0,0.0
11:13:03,560639.0,0.0,0.0
11:13:03,560686.0,0.0,0.0
11:13:03,560529.0,0.0,0.0
11:13:03,560789.0,0.0,0.0
11:13:03,560510.0,0.0,0.0
11:13:03,560626.0,0.0,0.0
11:13:03,560362.0,0.0,0.0
11:13:03,560369.0,0.0,0.0
11:13:03,560483.0,0.0,0.0
11:13:03,560517.0,0.0,0.0
11:13:03,560604.0,0.0,0.0
11:13:03,560669.0,0.0,0.0
11:13:03,560446.0,0.0,0.0
11:13:03,560710.0,0.0,0.0
11:13:03,560424.0,0.0,0.0
11:13:03,560547.0,0.0,0.0
11:13:03,560431.0,0.0,0.0
11:13:03,560406.0,0.0,0.0
11:13:03,560526.0,0.0,0.0
11:13:03,560359.0,0.0,0.0
11:13:03,560429.0,0.0,0.0
11:13:03,560398.0,0.0,0.0
11:13:03,560293.0,0.0,0.0
11:13:03,560415.0,0.0,0.0
11:13:03,560309.0,0.0,0.0
11:13:03,560333.0,0.0,0.0
11:13:03,560407.0,0.0,0.0
11:13:03,560192.0,0.0,0.0
11:13:03,560426.0,0.0,0.0
11:13:03,560143.0,0.0,0.0
11:13:03,560378.0,0.0,0.0
11:13:03,560215.0,0.0,0.0
11:13:03,560217.0,0.0,0.0
11:13:03,560306.0,0.0,0.0
11:13:03,560236.0,0.0,0.0
11:13:03,560216.0,0.0,0.0
11:13:03,560287.0,0.0,0.0
11:13:03,560089.0,0.0,0.0
11:13:03,560361.0,0.0,0.0
11:13:03,560078.0,0.0,0.0
11:13:03,560251.0,0.0,0.0
11:13:03,560142.0,0.0,0.0
11:13:03,560119.0,0.0,0.0
11:13:03,560255.0,0.0,0.0
11:13:03,560109.0,0.0,0.0
11:13:03,560187.0,0.0,0.0
11:13:03,560128.0,0.0,0.0
11:13:03,560105.0,0.0,0.0
11:13:03,560204.0,0.0,0.0
11:13:03,560079.0,0.0,0.0
11:13:03,560134.0,0.0,0.0
11:13:03,560201.0,0.0,0.0
11:13:03,560038.0,0.0,0.0
11:13:03,560304.0,0.0,0.0
11:13:03,560043.0,0.0,0.0
11:13:03,560273.0,0.0,0.0
11:13:03,560129.0,0.0,0.0
11:13:03,560148.0,0.0,0.0
11:13:03,560186.0,0.0,0.0
11:13:03,560116.0,0.0,0.0
11:13:03,560116.0,0.0,0.0
11:13:03,560216.0,0.0,0.0
11:13:03,559993.0,0.0,0.0
11:13:03,560223.0,0.0,0.0
11:13:03,559979.0,0.0,0.0
11:13:03,560178.0,0.0,0.0
11:13:03,560108.0,0.0,0.0
11:13:03,560033.0,0.0,0.0
11:13:03,560146.0,0.0,0.0
11:13:03,559992.0,0.0,0.0
11:13:03,560091.0,0.0,0.0
11:13:03,560108.0,0.0,0.0
11:13:03,560009.0,0.0,0.0
11:13:03,560169.0,0.0,0.0
11:13:03,560047.0,0.0,0.0
11:13:03,560103.0,0.0,0.0
11:13:03,560132.0,0.0,0.0
11:13:03,559956.0,0.0,0.0
11:13:03,560239.0,0.0,0.0
11:13:03,559938.0,0.0,0.0
11:13:03,560168.0,0.0,0.0
11:13:03,560049.0,0.0,0.0
11:13:03,560058.0,0.0,0.0
11:13:03,560118.0,0.0,0.0
11:13:03,560051.0,0.0,0.0
11:13:03,560046.0,0.0,0.0
11:13:03,560108.0,0.0,0.0
11:13:03,559890.0,0.0,0.0
11:13:03,560165.0,0.0,0.0
11:13:03,559909.0,0.0,0.0
11:13:03,560088.0,0.0,0.0
11:13:03,560018.0,0.0,0.0
11:13:03,559958.0,0.0,0.0
11:13:03,560063.0,0.0,0.0
11:13:03,559931.0,0.0,0.0
11:13:03,560041.0,0.0,0.0
11:13:03,559996.0,0.0,0.0
11:13:03,559911.0,0.0,0.0
11:13:03,560108.0,0.0,0.0
11:13:03,559947.0,0.0,0.0
11:13:04,560003.0,0.0,0.0
11:13:04,560016.0,0.0,0.0
11:13:04,559830.0,0.0,0.0
11:13:04,560129.0,0.0,0.0
11:13:04,559900.0,0.0,0.0
11:13:04,560071.0,0.0,0.0
11:13:04,559739.0,0.0,0.0
11:13:04,559665.0,0.0,0.0
11:13:04,559732.0,0.0,0.0
11:13:04,559767.0,0.0,0.0
11:13:04,559930.0,0.0,0.0
11:13:04,560042.0,0.0,0.0
11:13:04,559811.0,0.0,0.0
11:13:04,560049.0,0.0,0.0
11:13:04,559781.0,0.0,0.0
11:13:04,559939.0,0.0,0.0
11:13:04,559866.0,0.0,0.0
11:13:04,559813.0,0.0,0.0
11:13:04,559888.0,0.0,0.0
11:13:04,559777.0,0.0,0.0
11:13:04,559866.0,0.0,0.0
11:13:04,559790.0,0.0,0.0
11:13:04,559710.0,0.0,0.0
11:13:04,559834.0,0.0,0.0
11:13:04,559727.0,0.0,0.0
11:13:04,559763.0,0.0,0.0
11:13:04,559779.0,0.0,0.0
11:13:04,559569.0,0.0,0.0
11:13:04,559846.0,0.0,0.0
11:13:04,559596.0,0.0,0.0
11:13:04,559794.0,0.0,0.0
11:13:04,559633.0,0.0,0.0
11:13:04,559694.0,0.0,0.0
11:13:04,559724.0,0.0,0.0
11:13:04,559602.0,0.0,0.0
11:13:04,559614.0,0.0,0.0
11:13:04,559697.0,0.0,0.0
11:13:04,559479.0,0.0,0.0
11:13:04,559749.0,0.0,0.0
11:13:04,559511.0,0.0,0.0
11:13:04,559666.0,0.0,0.0
11:13:04,559583.0,0.0,0.0
11:13:04,559544.0,0.0,0.0
11:13:04,559662.0,0.0,0.0
11:13:04,559521.0,0.0,0.0
11:13:04,559599.0,0.0,0.0
11:13:04,559605.0,0.0,0.0
11:13:04,559561.0,0.0,0.0
11:13:04,559684.0,0.0,0.0
11:13:04,559553.0,0.0,0.0
11:13:04,559544.0,0.0,0.0
11:13:04,559643.0,0.0,0.0
11:13:04,559481.0,0.0,0.0
11:13:04,559739.0,0.0,0.0
11:13:04,559494.0,0.0,0.0
11:13:04,559749.0,0.0,0.0
11:13:04,559606.0,0.0,0.0
11:13:04,559647.0,0.0,0.0
11:13:04,559698.0,0.0,0.0
11:13:04,559621.0,0.0,0.0
11:13:04,559676.0,0.0,0.0
11:13:04,559742.0,0.0,0.0
11:13:04,559583.0,0.0,0.0
11:13:04,559819.0,0.0,0.0
11:13:04,559574.0,0.0,0.0
11:13:04,559753.0,0.0,0.0
11:13:04,559671.0,0.0,0.0
11:13:04,559613.0,0.0,0.0
11:13:04,559754.0,0.0,0.0
11:13:04,559628.0,0.0,0.0
11:13:04,559731.0,0.0,0.0
11:13:04,559681.0,0.0,0.0
11:13:04,559636.0,0.0,0.0
11:13:04,559794.0,0.0,0.0
11:13:04,559682.0,0.0,0.0
11:13:04,559761.0,0.0,0.0
11:13:04,559783.0,0.0,0.0
11:13:04,559636.0,0.0,0.0
11:13:04,559884.0,0.0,0.0
11:13:04,559653.0,0.0,0.0
11:13:04,559888.0,0.0,0.0
11:13:04,559713.0,0.0,0.0
11:13:04,559763.0,0.0,0.0
11:13:04,559791.0,0.0,0.0
11:13:04,559719.0,0.0,0.0
11:13:04,559718.0,0.0,0.0
11:13:04,559790.0,0.0,0.0
11:13:04,559639.0,0.0,0.0
11:13:04,559894.0,0.0,0.0
11:13:04,559630.0,0.0,0.0
11:13:04,559769.0,0.0,0.0
11:13:04,559706.0,0.0,0.0
11:13:04,559685.0,0.0,0.0
11:13:04,559820.0,0.0,0.0
11:13:04,559661.0,0.0,0.0
11:13:04,559775.0,0.0,0.0
11:13:04,559729.0,0.0,0.0
11:13:04,559674.0,0.0,0.0
11:13:04,559798.0,0.0,0.0
11:13:04,559657.0,0.0,0.0
11:13:04,559747.0,0.0,0.0
11:13:04,559791.0,0.0,0.0
11:13:04,559629.0,0.0,0.0
11:13:04,559868.0,0.0,0.0
11:13:04,559608.0,0.0,0.0
11:13:04,559829.0,0.0,0.0
11:13:04,559684.0,0.0,0.0
11:13:04,559718.0,0.0,0.0
11:13:04,559816.0,0.0,0.0
11:13:04,559757.0,0.0,0.0
11:13:04,559749.0,0.0,0.0
11:13:04,559646.0,0.0,0.0
11:13:04,559435.0,0.0,0.0
11:13:04,559733.0,0.0,0.0
11:13:04,559599.0,0.0,0.0
11:13:04,559888.0,0.0,0.0
11:13:04,559750.0,0.0,0.0
11:13:04,559687.0,0.0,0.0
11:13:04,559798.0,0.0,0.0
11:13:04,559628.0,0.0,0.0
11:13:04,559776.0,0.0,0.0
11:13:04,559726.0,0.0,0.0
11:13:04,559717.0,0.0,0.0
11:13:04,559853.0,0.0,0.0
11:13:04,559700.0,0.0,0.0
11:13:05,559730.0,0.0,0.0
11:13:05,559791.0,0.0,0.0
11:13:05,559594.0,0.0,0.0
11:13:05,559833.0,0.0,0.0
11:13:05,559604.0,0.0,0.0
11:13:05,559822.0,0.0,0.0
11:13:05,559678.0,0.0,0.0
11:13:05,559705.0,0.0,0.0
11:13:05,559762.0,0.0,0.0
11:13:05,559694.0,0.0,0.0
11:13:05,559701.0,0.0,0.0
11:13:05,559793.0,0.0,0.0
11:13:05,559600.0,0.0,0.0
11:13:05,559841.0,0.0,0.0
11:13:05,559616.0,0.0,0.0
11:13:05,559831.0,0.0,0.0
11:13:05,559700.0,0.0,0.0
11:13:05,559703.0,0.0,0.0
11:13:05,559804.0,0.0,0.0
11:13:05,559650.0,0.0,0.0
11:13:05,559758.0,0.0,0.0
11:13:05,559719.0,0.0,0.0
11:13:05,559704.0,0.0,0.0
11:13:05,559821.0,0.0,0.0
11:13:05,559694.0,0.0,0.0
11:13:05,559779.0,0.0,0.0
11:13:05,559816.0,0.0,0.0
11:13:05,559666.0,0.0,0.0
11:13:05,559906.0,0.0,0.0
11:13:05,559642.0,0.0,0.0
11:13:05,559876.0,0.0,0.0
11:13:05,559766.0,0.0,0.0
11:13:05,559804.0,0.0,0.0
11:13:05,559847.0,0.0,0.0
11:13:05,559764.0,0.0,0.0
11:13:05,559838.0,0.0,0.0
11:13:05,559924.0,0.0,0.0
11:13:05,559759.0,0.0,0.0
11:13:05,560006.0,0.0,0.0
11:13:05,559730.0,0.0,0.0
11:13:05,559928.0,0.0,0.0
11:13:05,559899.0,0.0,0.0
11:13:05,559846.0,0.0,0.0
11:13:05,559967.0,0.0,0.0
11:13:05,559807.0,0.0,0.0
11:13:05,559913.0,0.0,0.0
11:13:05,559866.0,0.0,0.0
11:13:05,559808.0,0.0,0.0
11:13:05,559925.0,0.0,0.0
11:13:05,559821.0,0.0,0.0
11:13:05,559864.0,0.0,0.0
11:13:05,559915.0,0.0,0.0
11:13:05,559808.0,0.0,0.0
11:13:05,560044.0,0.0,0.0
11:13:05,559794.0,0.0,0.0
11:13:05,560033.0,0.0,0.0
11:13:05,559948.0,0.0,0.0
11:13:05,560008.0,0.0,0.0
11:13:05,560048.0,0.0,0.0
11:13:05,560011.0,0.0,0.0
11:13:05,560020.0,0.0,0.0
11:13:05,560100.0,0.0,0.0
11:13:05,559918.0,0.0,0.0
11:13:05,560166.0,0.0,0.0
11:13:05,559902.0,0.0,0.0
11:13:05,560071.0,0.0,0.0
11:13:05,559997.0,0.0,0.0
11:13:05,559967.0,0.0,0.0
11:13:05,560101.0,0.0,0.0
11:13:05,559964.0,0.0,0.0
11:13:05,560099.0,0.0,0.0
11:13:05,560056.0,0.0,0.0
11:13:05,560008.0,0.0,0.0
11:13:05,560146.0,0.0,0.0
11:13:05,559981.0,0.0,0.0
11:13:05,560056.0,0.0,0.0
11:13:05,560119.0,0.0,0.0
11:13:05,559959.0,0.0,0.0
11:13:05,560212.0,0.0,0.0
11:13:05,559962.0,0.0,0.0
11:13:05,560194.0,0.0,0.0
11:13:05,560113.0,0.0,0.0
11:13:05,560118.0,0.0,0.0
11:13:05,560113.0,0.0,0.0
11:13:05,560053.0,0.0,0.0
11:13:05,560103.0,0.0,0.0
11:13:05,560227.0,0.0,0.0
11:13:05,560041.0,0.0,0.0
11:13:05,560275.0,0.0,0.0
11:13:05,559919.0,0.0,0.0
11:13:05,560069.0,0.0,0.0
11:13:05,560006.0,0.0,0.0
11:13:05,560019.0,0.0,0.0
11:13:05,560248.0,0.0,0.0
11:13:05,560161.0,0.0,0.0
11:13:05,560269.0,0.0,0.0
11:13:05,560196.0,0.0,0.0
11:13:05,560151.0,0.0,0.0
11:13:05,560283.0,0.0,0.0
11:13:05,560101.0,0.0,0.0
11:13:05,560157.0,0.0,0.0
11:13:05,560218.0,0.0,0.0
11:13:05,560069.0,0.0,0.0
11:13:05,560336.0,0.0,0.0
11:13:05,560027.0,0.0,0.0
11:13:05,560275.0,0.0,0.0
11:13:05,560148.0,0.0,0.0
11:13:05,560156.0,0.0,0.0
11:13:05,560211.0,0.0,0.0
11:13:05,560161.0,0.0,0.0
11:13:05,560179.0,0.0,0.0
11:13:05,560229.0,0.0,0.0
11:13:05,560061.0,0.0,0.0
11:13:05,560298.0,0.0,0.0
11:13:05,560032.0,0.0,0.0
11:13:05,560248.0,0.0,0.0
11:13:05,560127.0,0.0,0.0
11:13:05,560089.0,0.0,0.0
11:13:05,560225.0,0.0,0.0
11:13:05,560061.0,0.0,0.0
11:13:05,560231.0,0.0,0.0
11:13:05,560200.0,0.0,0.0
11:13:05,560154.0,0.0,0.0
11:13:05,560242.0,0.0,0.0
11:13:05,560132.0,0.0,0.0
11:13:06,560222.0,0.0,0.0
11:13:06,560236.0,0.0,0.0
11:13:06,560084.0,0.0,0.0
11:13:06,560333.0,0.0,0.0
11:13:06,560060.0,0.0,0.0
11:13:06,560295.0,0.0,0.0
11:13:06,560139.0,0.0,0.0
11:13:06,560178.0,0.0,0.0
11:13:06,560236.0,0.0,0.0
11:13:06,560211.0,0.0,0.0
11:13:06,560255.0,0.0,0.0
11:13:06,560317.0,0.0,0.0
11:13:06,560161.0,0.0,0.0
11:13:06,560426.0,0.0,0.0
11:13:06,560169.0,0.0,0.0
11:13:06,560366.0,0.0,0.0
11:13:06,560311.0,0.0,0.0
11:13:06,560262.0,0.0,0.0
11:13:06,560394.0,0.0,0.0
11:13:06,560221.0,0.0,0.0
11:13:06,560353.0,0.0,0.0
11:13:06,560351.0,0.0,0.0
11:13:06,560301.0,0.0,0.0
11:13:06,560371.0,0.0,0.0
11:13:06,560238.0,0.0,0.0
11:13:06,560303.0,0.0,0.0
11:13:06,560347.0,0.0,0.0
11:13:06,560221.0,0.0,0.0
11:13:06,560469.0,0.0,0.0
11:13:06,560219.0,0.0,0.0
11:13:06,560426.0,0.0,0.0
11:13:06,560292.0,0.0,0.0
11:13:06,560361.0,0.0,0.0
11:13:06,560385.0,0.0,0.0
11:13:06,560305.0,0.0,0.0
11:13:06,560338.0,0.0,0.0
11:13:06,560422.0,0.0,0.0
11:13:06,560248.0,0.0,0.0
11:13:06,560503.0,0.0,0.0
11:13:06,560266.0,0.0,0.0
11:13:06,560444.0,0.0,0.0
11:13:06,560363.0,0.0,0.0
11:13:06,560333.0,0.0,0.0
11:13:06,560411.0,0.0,0.0
11:13:06,560285.0,0.0,0.0
11:13:06,560425.0,0.0,0.0
11:13:06,560369.0,0.0,0.0
11:13:06,560319.0,0.0,0.0
11:13:06,560453.0,0.0,0.0
11:13:06,560304.0,0.0,0.0
11:13:06,560363.0,0.0,0.0
11:13:06,560410.0,0.0,0.0
11:13:06,560243.0,0.0,0.0
11:13:06,560526.0,0.0,0.0
11:13:06,560279.0,0.0,0.0
11:13:06,560505.0,0.0,0.0
11:13:06,560354.0,0.0,0.0
11:13:06,560287.0,0.0,0.0
11:13:06,560328.0,0.0,0.0
11:13:06,560261.0,0.0,0.0
11:13:06,560311.0,0.0,0.0
11:13:06,560435.0,0.0,0.0
11:13:06,560284.0,0.0,0.0
11:13:06,560534.0,0.0,0.0
11:13:06,560321.0,0.0,0.0
11:13:06,560494.0,0.0,0.0
11:13:06,560352.0,0.0,0.0
11:13:06,560323.0,0.0,0.0
11:13:06,560409.0,0.0,0.0
11:13:06,560269.0,0.0,0.0
11:13:06,560384.0,0.0,0.0
11:13:06,560339.0,0.0,0.0
11:13:06,560288.0,0.0,0.0
11:13:06,560418.0,0.0,0.0
11:13:06,560276.0,0.0,0.0
11:13:06,560368.0,0.0,0.0
11:13:06,560373.0,0.0,0.0
11:13:06,560210.0,0.0,0.0
11:13:06,560454.0,0.0,0.0
11:13:06,560160.0,0.0,0.0
11:13:06,560429.0,0.0,0.0
11:13:06,560250.0,0.0,0.0
11:13:06,560251.0,0.0,0.0
11:13:06,560303.0,0.0,0.0
11:13:06,560271.0,0.0,0.0
11:13:06,560294.0,0.0,0.0
11:13:06,560339.0,0.0,0.0
11:13:06,560186.0,0.0,0.0
11:13:06,560425.0,0.0,0.0
11:13:06,560194.0,0.0,0.0
11:13:06,560432.0,0.0,0.0
11:13:06,560363.0,0.0,0.0
11:13:06,560374.0,0.0,0.0
11:13:06,560512.0,0.0,0.0
11:13:06,560329.0,0.0,0.0
11:13:06,560457.0,0.0,0.0
11:13:06,560446.0,0.0,0.0
11:13:06,560404.0,0.0,0.0
11:13:06,560499.0,0.0,0.0
11:13:06,560386.0,0.0,0.0
11:13:06,560461.0,0.0,0.0
11:13:06,560474.0,0.0,0.0
11:13:06,560317.0,0.0,0.0
11:13:06,560551.0,0.0,0.0
11:13:06,560299.0,0.0,0.0
11:13:06,560539.0,0.0,0.0
11:13:06,560346.0,0.0,0.0
11:13:06,560413.0,0.0,0.0
11:13:06,560421.0,0.0,0.0
11:13:06,560381.0,0.0,0.0
11:13:06,560435.0,0.0,0.0
11:13:06,560508.0,0.0,0.0
11:13:06,560356.0,0.0,0.0
11:13:06,560551.0,0.0,0.0
11:13:06,560278.0,0.0,0.0
11:13:06,560486.0,0.0,0.0
11:13:06,560374.0,0.0,0.0
11:13:06,560342.0,0.0,0.0
11:13:06,560463.0,0.0,0.0
11:13:06,560281.0,0.0,0.0
11:13:06,560391.0,0.0,0.0
11:13:06,560343.0,0.0,0.0
11:13:06,560269.0,0.0,0.0
11:13:06,560353.0,0.0,0.0
11:13:06,560241.0,0.0,0.0
11:13:07,560321.0,0.0,0.0
11:13:07,560383.0,0.0,0.0
11:13:07,560238.0,0.0,0.0
11:13:07,560469.0,0.0,0.0
11:13:07,560196.0,0.0,0.0
11:13:07,560431.0,0.0,0.0
11:13:07,560292.0,0.0,0.0
11:13:07,560345.0,0.0,0.0
11:13:07,560391.0,0.0,0.0
11:13:07,560333.0,0.0,0.0
11:13:07,560338.0,0.0,0.0
11:13:07,560440.0,0.0,0.0
11:13:07,560274.0,0.0,0.0
11:13:07,560514.0,0.0,0.0
11:13:07,560243.0,0.0,0.0
11:13:07,560404.0,0.0,0.0
11:13:07,560345.0,0.0,0.0
11:13:07,560328.0,0.0,0.0
11:13:07,560466.0,0.0,0.0
11:13:07,560287.0,0.0,0.0
11:13:07,560273.0,0.0,0.0
11:13:07,560201.0,0.0,0.0
11:13:07,560231.0,0.0,0.0
11:13:07,560389.0,0.0,0.0
11:13:07,560360.0,0.0,0.0
11:13:07,560435.0,0.0,0.0
11:13:07,560410.0,0.0,0.0
11:13:07,560269.0,0.0,0.0
11:13:07,560480.0,0.0,0.0
11:13:07,560206.0,0.0,0.0
11:13:07,560412.0,0.0,0.0
11:13:07,560236.0,0.0,0.0
11:13:07,560258.0,0.0,0.0
11:13:07,560263.0,0.0,0.0
11:13:07,560179.0,0.0,0.0
11:13:07,560211.0,0.0,0.0
11:13:07,560284.0,0.0,0.0
11:13:07,560074.0,0.0,0.0
11:13:07,560309.0,0.0,0.0
11:13:07,560054.0,0.0,0.0
11:13:07,560223.0,0.0,0.0
11:13:07,560061.0,0.0,0.0
11:13:07,560033.0,0.0,0.0
11:13:07,560165.0,0.0,0.0
11:13:07,560002.0,0.0,0.0
11:13:07,560115.0,0.0,0.0
11:13:07,560113.0,0.0,0.0
11:13:07,560004.0,0.0,0.0
11:13:07,560127.0,0.0,0.0
11:13:07,559996.0,0.0,0.0
11:13:07,560056.0,0.0,0.0
11:13:07,560072.0,0.0,0.0
11:13:07,559875.0,0.0,0.0
11:13:07,560094.0,0.0,0.0
11:13:07,559799.0,0.0,0.0
11:13:07,560044.0,0.0,0.0
11:13:07,559890.0,0.0,0.0
11:13:07,559939.0,0.0,0.0
11:13:07,559985.0,0.0,0.0
11:13:07,559931.0,0.0,0.0
11:13:07,559920.0,0.0,0.0
11:13:07,559984.0,0.0,0.0
11:13:07,559837.0,0.0,0.0
11:13:07,560063.0,0.0,0.0
11:13:07,559768.0,0.0,0.0
11:13:07,560008.0,0.0,0.0
11:13:07,559944.0,0.0,0.0
11:13:07,559944.0,0.0,0.0
11:13:07,559997.0,0.0,0.0
11:13:07,559862.0,0.0,0.0
11:13:07,559973.0,0.0,0.0
11:13:07,559858.0,0.0,0.0
11:13:07,559828.0,0.0,0.0
11:13:07,559964.0,0.0,0.0
11:13:07,559885.0,0.0,0.0
11:13:07,559944.0,0.0,0.0
11:13:07,559925.0,0.0,0.0
11:13:07,559775.0,0.0,0.0
11:13:07,560023.0,0.0,0.0
11:13:07,559738.0,0.0,0.0
11:13:07,559974.0,0.0,0.0
11:13:07,559799.0,0.0,0.0
11:13:07,559849.0,0.0,0.0
11:13:07,559866.0,0.0,0.0
11:13:07,559816.0,0.0,0.0
11:13:07,559832.0,0.0,0.0
11:13:07,559903.0,0.0,0.0
11:13:07,559717.0,0.0,0.0
11:13:07,559896.0,0.0,0.0
11:13:07,559649.0,0.0,0.0
11:13:07,559898.0,0.0,0.0
11:13:07,559774.0,0.0,0.0
11:13:07,559776.0,0.0,0.0
11:13:07,559887.0,0.0,0.0
11:13:07,559732.0,0.0,0.0
11:13:07,559843.0,0.0,0.0
11:13:07,559777.0,0.0,0.0
11:13:07,559721.0,0.0,0.0
11:13:07,559833.0,0.0,0.0
11:13:07,559682.0,0.0,0.0
11:13:07,559788.0,0.0,0.0
11:13:07,559782.0,0.0,0.0
11:13:07,559628.0,0.0,0.0
11:13:07,559874.0,0.0,0.0
11:13:07,559541.0,0.0,0.0
11:13:07,559769.0,0.0,0.0
11:13:07,559628.0,0.0,0.0
11:13:07,559661.0,0.0,0.0
11:13:07,559759.0,0.0,0.0
11:13:07,559733.0,0.0,0.0
11:13:07,559720.0,0.0,0.0
11:13:07,559630.0,0.0,0.0
11:13:07,559433.0,0.0,0.0
11:13:07,559735.0,0.0,0.0
11:13:07,559513.0,0.0,0.0
11:13:07,559788.0,0.0,0.0
11:13:07,559689.0,0.0,0.0
11:13:07,559659.0,0.0,0.0
11:13:07,559723.0,0.0,0.0
11:13:07,559554.0,0.0,0.0
11:13:07,559689.0,0.0,0.0
11:13:07,559688.0,0.0,0.0
11:13:07,559619.0,0.0,0.0
11:13:07,559661.0,0.0,0.0
11:13:07,559551.0,0.0,0.0
11:13:08,559643.0,0.0,0.0
11:13:08,559685.0,0.0,0.0
11:13:08,559514.0,0.0,0.0
11:13:08,559736.0,0.0,0.0
11:13:08,559478.0,0.0,0.0
11:13:08,559731.0,0.0,0.0
11:13:08,559560.0,0.0,0.0
11:13:08,559615.0,0.0,0.0
11:13:08,559613.0,0.0,0.0
11:13:08,559559.0,0.0,0.0
11:13:08,559579.0,0.0,0.0
11:13:08,559652.0,0.0,0.0
11:13:08,559462.0,0.0,0.0
11:13:08,559657.0,0.0,0.0
11:13:08,559427.0,0.0,0.0
11:13:08,559591.0,0.0,0.0
11:13:08,559404.0,0.0,0.0
11:13:08,559359.0,0.0,0.0
11:13:08,559431.0,0.0,0.0
11:13:08,559286.0,0.0,0.0
11:13:08,559402.0,0.0,0.0
11:13:08,559322.0,0.0,0.0
11:13:08,559243.0,0.0,0.0
11:13:08,559338.0,0.0,0.0
11:13:08,559207.0,0.0,0.0
11:13:08,559312.0,0.0,0.0
11:13:08,559337.0,0.0,0.0
11:13:08,559148.0,0.0,0.0
11:13:08,559361.0,0.0,0.0
11:13:08,559085.0,0.0,0.0
11:13:08,559318.0,0.0,0.0
11:13:08,559102.0,0.0,0.0
11:13:08,559144.0,0.0,0.0
11:13:08,559203.0,0.0,0.0
11:13:08,559117.0,0.0,0.0
11:13:08,559111.0,0.0,0.0
11:13:08,559214.0,0.0,0.0
11:13:08,559023.0,0.0,0.0
11:13:08,559233.0,0.0,0.0
11:13:08,558989.0,0.0,0.0
11:13:08,559196.0,0.0,0.0
11:13:08,559083.0,0.0,0.0
11:13:08,559078.0,0.0,0.0
11:13:08,559174.0,0.0,0.0
11:13:08,559008.0,0.0,0.0
11:13:08,559120.0,0.0,0.0
11:13:08,559086.0,0.0,0.0
11:13:08,559019.0,0.0,0.0
11:13:08,559123.0,0.0,0.0
11:13:08,558986.0,0.0,0.0
11:13:08,559064.0,0.0,0.0
11:13:08,559091.0,0.0,0.0
11:13:08,558932.0,0.0,0.0
11:13:08,559172.0,0.0,0.0
11:13:08,558897.0,0.0,0.0
11:13:08,559131.0,0.0,0.0
11:13:08,558948.0,0.0,0.0
11:13:08,558990.0,0.0,0.0
11:13:08,559068.0,0.0,0.0
11:13:08,559016.0,0.0,0.0
11:13:08,559018.0,0.0,0.0
11:13:08,559068.0,0.0,0.0
11:13:08,558895.0,0.0,0.0
11:13:08,559168.0,0.0,0.0
11:13:08,558899.0,0.0,0.0
11:13:08,559077.0,0.0,0.0
11:13:08,559002.0,0.0,0.0
11:13:08,558989.0,0.0,0.0
11:13:08,559096.0,0.0,0.0
11:13:08,558943.0,0.0,0.0
11:13:08,559059.0,0.0,0.0
11:13:08,558986.0,0.0,0.0
11:13:08,558917.0,0.0,0.0
11:13:08,559076.0,0.0,0.0
11:13:08,558946.0,0.0,0.0
11:13:08,558976.0,0.0,0.0
11:13:08,559007.0,0.0,0.0
11:13:08,558877.0,0.0,0.0
11:13:08,559168.0,0.0,0.0
11:13:08,558928.0,0.0,0.0
11:13:08,559103.0,0.0,0.0
11:13:08,558759.0,0.0,0.0
11:13:08,558773.0,0.0,0.0
11:13:08,558829.0,0.0,0.0
11:13:08,558888.0,0.0,0.0
11:13:08,559006.0,0.0,0.0
11:13:08,559088.0,0.0,0.0
11:13:08,558880.0,0.0,0.0
11:13:08,559111.0,0.0,0.0
11:13:08,558819.0,0.0,0.0
11:13:08,558980.0,0.0,0.0
11:13:08,558899.0,0.0,0.0
11:13:08,558863.0,0.0,0.0
11:13:08,558981.0,0.0,0.0
11:13:08,558830.0,0.0,0.0
11:13:08,558934.0,0.0,0.0
11:13:08,558852.0,0.0,0.0
11:13:08,558804.0,0.0,0.0
11:13:08,558959.0,0.0,0.0
11:13:08,558811.0,0.0,0.0
11:13:08,558849.0,0.0,0.0
11:13:08,558887.0,0.0,0.0
11:13:08,558713.0,0.0,0.0
11:13:08,558955.0,0.0,0.0
11:13:08,558727.0,0.0,0.0
11:13:08,558961.0,0.0,0.0
11:13:08,558761.0,0.0,0.0
11:13:08,558832.0,0.0,0.0
11:13:08,558831.0,0.0,0.0
11:13:08,558744.0,0.0,0.0
11:13:08,558773.0,0.0,0.0
11:13:08,558806.0,0.0,0.0
11:13:08,558622.0,0.0,0.0
11:13:08,558884.0,0.0,0.0
11:13:08,558566.0,0.0,0.0
11:13:08,558765.0,0.0,0.0
11:13:08,558648.0,0.0,0.0
11:13:08,558641.0,0.0,0.0
11:13:08,558779.0,0.0,0.0
11:13:08,558638.0,0.0,0.0
11:13:08,558771.0,0.0,0.0
11:13:08,558694.0,0.0,0.0
11:13:08,558683.0,0.0,0.0
11:13:08,558777.0,0.0,0.0
11:13:08,558631.0,0.0,0.0
11:13:09,558724.0,0.0,0.0
11:13:09,558740.0,0.0,0.0
11:13:09,558614.0,0.0,0.0
11:13:09,558841.0,0.0,0.0
11:13:09,558581.0,0.0,0.0
11:13:09,558826.0,0.0,0.0
11:13:09,558657.0,0.0,0.0
11:13:09,558726.0,0.0,0.0
11:13:09,558764.0,0.0,0.0
11:13:09,558670.0,0.0,0.0
11:13:09,558700.0,0.0,0.0
11:13:09,558768.0,0.0,0.0
11:13:09,558608.0,0.0,0.0
11:13:09,558817.0,0.0,0.0
11:13:09,558535.0,0.0,0.0
11:13:09,558704.0,0.0,0.0
11:13:09,558652.0,0.0,0.0
11:13:09,558623.0,0.0,0.0
11:13:09,558764.0,0.0,0.0
11:13:09,558598.0,0.0,0.0
11:13:09,558713.0,0.0,0.0
11:13:09,558694.0,0.0,0.0
11:13:09,558654.0,0.0,0.0
11:13:09,558741.0,0.0,0.0
11:13:09,558621.0,0.0,0.0
11:13:09,558709.0,0.0,0.0
11:13:09,558671.0,0.0,0.0
11:13:09,558494.0,0.0,0.0
11:13:09,558753.0,0.0,0.0
11:13:09,558479.0,0.0,0.0
11:13:09,558749.0,0.0,0.0
11:13:09,558628.0,0.0,0.0
11:13:09,558608.0,0.0,0.0
11:13:09,558616.0,0.0,0.0
11:13:09,558559.0,0.0,0.0
11:13:09,558589.0,0.0,0.0
11:13:09,558618.0,0.0,0.0
11:13:09,558467.0,0.0,0.0
11:13:09,558705.0,0.0,0.0
11:13:09,558464.0,0.0,0.0
11:13:09,558681.0,0.0,0.0
11:13:09,558574.0,0.0,0.0
11:13:09,558548.0,0.0,0.0
11:13:09,558634.0,0.0,0.0
11:13:09,558468.0,0.0,0.0
11:13:09,558582.0,0.0,0.0
11:13:09,558512.0,0.0,0.0
11:13:09,558494.0,0.0,0.0
11:13:09,558598.0,0.0,0.0
11:13:09,558491.0,0.0,0.0
11:13:09,558618.0,0.0,0.0
11:13:09,558648.0,0.0,0.0
11:13:09,558362.0,0.0,0.0
11:13:09,558454.0,0.0,0.0
11:13:09,558206.0,0.0,0.0
11:13:09,558498.0,0.0,0.0
11:13:09,558454.0,0.0,0.0
11:13:09,558608.0,0.0,0.0
11:13:09,558634.0,0.0,0.0
11:13:09,558528.0,0.0,0.0
11:13:09,558532.0,0.0,0.0
11:13:09,558589.0,0.0,0.0
11:13:09,558398.0,0.0,0.0
11:13:09,558639.0,0.0,0.0
11:13:09,558371.0,0.0,0.0
11:13:09,558545.0,0.0,0.0
11:13:09,558416.0,0.0,0.0
11:13:09,558394.0,0.0,0.0
11:13:09,558501.0,0.0,0.0
11:13:09,558310.0,0.0,0.0
11:13:09,558463.0,0.0,0.0
11:13:09,558380.0,0.0,0.0
11:13:09,558335.0,0.0,0.0
11:13:09,558446.0,0.0,0.0
11:13:09,558328.0,0.0,0.0
11:13:09,558383.0,0.0,0.0
11:13:09,558388.0,0.0,0.0
11:13:09,558232.0,0.0,0.0
11:13:09,558466.0,0.0,0.0
11:13:09,558203.0,0.0,0.0
11:13:09,558463.0,0.0,0.0
11:13:09,558267.0,0.0,0.0
11:13:09,558312.0,0.0,0.0
11:13:09,558339.0,0.0,0.0
11:13:09,558248.0,0.0,0.0
11:13:09,558287.0,0.0,0.0
11:13:09,558308.0,0.0,0.0
11:13:09,558191.0,0.0,0.0
11:13:09,558409.0,0.0,0.0
11:13:09,558119.0,0.0,0.0
11:13:09,558330.0,0.0,0.0
11:13:09,558231.0,0.0,0.0
11:13:09,558255.0,0.0,0.0
11:13:09,558346.0,0.0,0.0
11:13:09,558204.0,0.0,0.0
11:13:09,558303.0,0.0,0.0
11:13:09,558232.0,0.0,0.0
11:13:09,558206.0,0.0,0.0
11:13:09,558337.0,0.0,0.0
11:13:09,558184.0,0.0,0.0
11:13:09,558231.0,0.0,0.0
11:13:09,558279.0,0.0,0.0
11:13:09,558144.0,0.0,0.0
11:13:09,558396.0,0.0,0.0
11:13:09,558121.0,0.0,0.0
11:13:09,558314.0,0.0,0.0
11:13:09,558158.0,0.0,0.0
11:13:09,558246.0,0.0,0.0
11:13:09,558278.0,0.0,0.0
11:13:09,558159.0,0.0,0.0
11:13:09,558169.0,0.0,0.0
11:13:09,558248.0,0.0,0.0
11:13:09,558091.0,0.0,0.0
11:13:09,558344.0,0.0,0.0
11:13:09,558063.0,0.0,0.0
11:13:09,558304.0,0.0,0.0
11:13:09,558179.0,0.0,0.0
11:13:09,558154.0,0.0,0.0
11:13:09,558244.0,0.0,0.0
11:13:09,558111.0,0.0,0.0
11:13:09,558269.0,0.0,0.0
11:13:09,558217.0,0.0,0.0
11:13:09,558185.0,0.0,0.0
11:13:09,558239.0,0.0,0.0
11:13:09,558084.0,0.0,0.0
11:13:10,558203.0,0.0,0.0
11:13:10,558227.0,0.0,0.0
11:13:10,558124.0,0.0,0.0
11:13:10,558317.0,0.0,0.0
11:13:10,558021.0,0.0,0.0
11:13:10,558272.0,0.0,0.0
11:13:10,558096.0,0.0,0.0
11:13:10,558155.0,0.0,0.0
11:13:10,558179.0,0.0,0.0
11:13:10,558111.0,0.0,0.0
11:13:10,558138.0,0.0,0.0
11:13:10,558192.0,0.0,0.0
11:13:10,558014.0,0.0,0.0
11:13:10,558264.0,0.0,0.0
11:13:10,558016.0,0.0,0.0
11:13:10,558224.0,0.0,0.0
11:13:10,558099.0,0.0,0.0
11:13:10,558114.0,0.0,0.0
11:13:10,558243.0,0.0,0.0
11:13:10,558074.0,0.0,0.0
11:13:10,558227.0,0.0,0.0
11:13:10,558188.0,0.0,0.0
11:13:10,558174.0,0.0,0.0
11:13:10,558326.0,0.0,0.0
11:13:10,558155.0,0.0,0.0
11:13:10,558036.0,0.0,0.0
11:13:10,558031.0,0.0,0.0
11:13:10,557936.0,0.0,0.0
11:13:10,558289.0,0.0,0.0
11:13:10,558133.0,0.0,0.0
11:13:10,558408.0,0.0,0.0
11:13:10,558211.0,0.0,0.0
11:13:10,558265.0,0.0,0.0
11:13:10,558298.0,0.0,0.0
11:13:10,558221.0,0.0,0.0
11:13:10,558246.0,0.0,0.0
11:13:10,558290.0,0.0,0.0
11:13:10,558192.0,0.0,0.0
11:13:10,558406.0,0.0,0.0
11:13:10,558113.0,0.0,0.0
11:13:10,558330.0,0.0,0.0
11:13:10,558234.0,0.0,0.0
11:13:10,558232.0,0.0,0.0
11:13:10,558301.0,0.0,0.0
11:13:10,558161.0,0.0,0.0
11:13:10,558284.0,0.0,0.0
11:13:10,558211.0,0.0,0.0
11:13:10,558214.0,0.0,0.0
11:13:10,558308.0,0.0,0.0
11:13:10,558154.0,0.0,0.0
11:13:10,558251.0,0.0,0.0
11:13:10,558288.0,0.0,0.0
11:13:10,558158.0,0.0,0.0
11:13:10,558346.0,0.0,0.0
11:13:10,558054.0,0.0,0.0
11:13:10,558309.0,0.0,0.0
11:13:10,558162.0,0.0,0.0
11:13:10,558237.0,0.0,0.0
11:13:10,558266.0,0.0,0.0
11:13:10,558200.0,0.0,0.0
11:13:10,558238.0,0.0,0.0
11:13:10,558301.0,0.0,0.0
11:13:10,558125.0,0.0,0.0
11:13:10,558347.0,0.0,0.0
11:13:10,558138.0,0.0,0.0
11:13:10,558359.0,0.0,0.0
11:13:10,558203.0,0.0,0.0
11:13:10,558239.0,0.0,0.0
11:13:10,558360.0,0.0,0.0
11:13:10,558189.0,0.0,0.0
11:13:10,558306.0,0.0,0.0
11:13:10,558246.0,0.0,0.0
11:13:10,558226.0,0.0,0.0
11:13:10,558318.0,0.0,0.0
11:13:10,558186.0,0.0,0.0
11:13:10,558285.0,0.0,0.0
11:13:10,558300.0,0.0,0.0
11:13:10,558177.0,0.0,0.0
11:13:10,558419.0,0.0,0.0
11:13:10,558102.0,0.0,0.0
11:13:10,558373.0,0.0,0.0
11:13:10,558181.0,0.0,0.0
11:13:10,558228.0,0.0,0.0
11:13:10,558228.0,0.0,0.0
11:13:10,558189.0,0.0,0.0
11:13:10,558193.0,0.0,0.0
11:13:10,558214.0,0.0,0.0
11:13:10,558073.0,0.0,0.0
11:13:10,558315.0,0.0,0.0
11:13:10,558021.0,0.0,0.0
11:13:10,558294.0,0.0,0.0
11:13:10,558178.0,0.0,0.0
11:13:10,558202.0,0.0,0.0
11:13:10,558281.0,0.0,0.0
11:13:10,558164.0,0.0,0.0
11:13:10,558305.0,0.0,0.0
11:13:10,558208.0,0.0,0.0
11:13:10,558216.0,0.0,0.0
11:13:10,558299.0,0.0,0.0
11:13:10,558176.0,0.0,0.0
11:13:10,558300.0,0.0,0.0
11:13:10,558321.0,0.0,0.0
11:13:10,558166.0,0.0,0.0
11:13:10,558401.0,0.0,0.0
11:13:10,558104.0,0.0,0.0
11:13:10,558373.0,0.0,0.0
11:13:10,558201.0,0.0,0.0
11:13:10,558288.0,0.0,0.0
11:13:10,558277.0,0.0,0.0
11:13:10,558210.0,0.0,0.0
11:13:10,558249.0,0.0,0.0
11:13:10,558301.0,0.0,0.0
11:13:10,558152.0,0.0,0.0
11:13:10,558441.0,0.0,0.0
11:13:10,558201.0,0.0,0.0
11:13:10,558431.0,0.0,0.0
11:13:10,558321.0,0.0,0.0
11:13:10,558364.0,0.0,0.0
11:13:10,558526.0,0.0,0.0
11:13:10,558422.0,0.0,0.0
11:13:10,558566.0,0.0,0.0
11:13:10,558411.0,0.0,0.0
11:13:10,558276.0,0.0,0.0
11:13:10,558388.0,0.0,0.0
11:13:10,558306.0,0.0,0.0
11:13:11,558490.0,0.0,0.0
11:13:11,558571.0,0.0,0.0
11:13:11,558443.0,0.0,0.0
11:13:11,558634.0,0.0,0.0
11:13:11,558353.0,0.0,0.0
11:13:11,558597.0,0.0,0.0
11:13:11,558389.0,0.0,0.0
11:13:11,558468.0,0.0,0.0
11:13:11,558497.0,0.0,0.0
11:13:11,558451.0,0.0,0.0
11:13:11,558508.0,0.0,0.0
11:13:11,558546.0,0.0,0.0
11:13:11,558393.0,0.0,0.0
11:13:11,558654.0,0.0,0.0
11:13:11,558417.0,0.0,0.0
11:13:11,558666.0,0.0,0.0
11:13:11,558514.0,0.0,0.0
11:13:11,558508.0,0.0,0.0
11:13:11,558592.0,0.0,0.0
11:13:11,558449.0,0.0,0.0
11:13:11,558574.0,0.0,0.0
11:13:11,558524.0,0.0,0.0
11:13:11,558529.0,0.0,0.0
11:13:11,558614.0,0.0,0.0
11:13:11,558452.0,0.0,0.0
11:13:11,558551.0,0.0,0.0
11:13:11,558564.0,0.0,0.0
11:13:11,558418.0,0.0,0.0
11:13:11,558654.0,0.0,0.0
11:13:11,558374.0,0.0,0.0
11:13:11,558659.0,0.0,0.0
11:13:11,558504.0,0.0,0.0
11:13:11,558593.0,0.0,0.0
11:13:11,558623.0,0.0,0.0
11:13:11,558566.0,0.0,0.0
11:13:11,558608.0,0.0,0.0
11:13:11,558683.0,0.0,0.0
11:13:11,558534.0,0.0,0.0
11:13:11,558775.0,0.0,0.0
11:13:11,558536.0,0.0,0.0
11:13:11,558758.0,0.0,0.0
11:13:11,558604.0,0.0,0.0
11:13:11,558637.0,0.0,0.0
11:13:11,558748.0,0.0,0.0
11:13:11,558611.0,0.0,0.0
11:13:11,558699.0,0.0,0.0
11:13:11,558685.0,0.0,0.0
11:13:11,558699.0,0.0,0.0
11:13:11,558826.0,0.0,0.0
11:13:11,558704.0,0.0,0.0
11:13:11,558782.0,0.0,0.0
11:13:11,558761.0,0.0,0.0
11:13:11,558673.0,0.0,0.0
11:13:11,558955.0,0.0,0.0
11:13:11,558648.0,0.0,0.0
11:13:11,558884.0,0.0,0.0
11:13:11,558709.0,0.0,0.0
11:13:11,558811.0,0.0,0.0
11:13:11,558849.0,0.0,0.0
11:13:11,558781.0,0.0,0.0
11:13:11,558769.0,0.0,0.0
11:13:11,558828.0,0.0,0.0
11:13:11,558731.0,0.0,0.0
11:13:11,558961.0,0.0,0.0
11:13:11,558693.0,0.0,0.0
11:13:11,558950.0,0.0,0.0
11:13:11,558796.0,0.0,0.0
11:13:11,558818.0,0.0,0.0
11:13:11,558893.0,0.0,0.0
11:13:11,558769.0,0.0,0.0
11:13:11,558972.0,0.0,0.0
11:13:11,558936.0,0.0,0.0
11:13:11,558939.0,0.0,0.0
11:13:11,559007.0,0.0,0.0
11:13:11,558883.0,0.0,0.0
11:13:11,558968.0,0.0,0.0
11:13:11,558978.0,0.0,0.0
11:13:11,558877.0,0.0,0.0
11:13:11,559094.0,0.0,0.0
11:13:11,558786.0,0.0,0.0
11:13:11,559095.0,0.0,0.0
11:13:11,558908.0,0.0,0.0
11:13:11,559019.0,0.0,0.0
11:13:11,558970.0,0.0,0.0
11:13:11,558888.0,0.0,0.0
11:13:11,558928.0,0.0,0.0
11:13:11,558951.0,0.0,0.0
11:13:11,558892.0,0.0,0.0
11:13:11,559156.0,0.0,0.0
11:13:11,558891.0,0.0,0.0
11:13:11,559181.0,0.0,0.0
11:13:11,559048.0,0.0,0.0
11:13:11,559105.0,0.0,0.0
11:13:11,559231.0,0.0,0.0
11:13:11,559143.0,0.0,0.0
11:13:11,559336.0,0.0,0.0
11:13:11,559243.0,0.0,0.0
11:13:11,559211.0,0.0,0.0
11:13:11,559309.0,0.0,0.0
11:13:11,559168.0,0.0,0.0
11:13:11,559285.0,0.0,0.0
11:13:11,559279.0,0.0,0.0
11:13:11,559173.0,0.0,0.0
11:13:11,559418.0,0.0,0.0
11:13:11,559115.0,0.0,0.0
11:13:11,559385.0,0.0,0.0
11:13:11,559201.0,0.0,0.0
11:13:11,559238.0,0.0,0.0
11:13:11,559221.0,0.0,0.0
11:13:11,559168.0,0.0,0.0
11:13:11,559200.0,0.0,0.0
11:13:11,559254.0,0.0,0.0
11:13:11,559131.0,0.0,0.0
11:13:11,559333.0,0.0,0.0
11:13:11,559059.0,0.0,0.0
11:13:11,559268.0,0.0,0.0
11:13:11,559106.0,0.0,0.0
11:13:11,559161.0,0.0,0.0
11:13:11,559204.0,0.0,0.0
11:13:11,559048.0,0.0,0.0
11:13:11,559189.0,0.0,0.0
11:13:11,559108.0,0.0,0.0
11:13:11,559084.0,0.0,0.0
11:13:11,559166.0,0.0,0.0
11:13:11,559009.0,0.0,0.0
11:13:12,559124.0,0.0,0.0
11:13:12,559124.0,0.0,0.0
11:13:12,559008.0,0.0,0.0
11:13:12,559193.0,0.0,0.0
11:13:12,558876.0,0.0,0.0
11:13:12,559149.0,0.0,0.0
11:13:12,558951.0,0.0,0.0
11:13:12,559035.0,0.0,0.0
11:13:12,558998.0,0.0,0.0
11:13:12,558987.0,0.0,0.0
11:13:12,559008.0,0.0,0.0
11:13:12,559013.0,0.0,0.0
11:13:12,558889.0,0.0,0.0
11:13:12,559123.0,0.0,0.0
11:13:12,558853.0,0.0,0.0
11:13:12,559095.0,0.0,0.0
11:13:12,558889.0,0.0,0.0
11:13:12,558939.0,0.0,0.0
11:13:12,559063.0,0.0,0.0
11:13:12,558914.0,0.0,0.0
11:13:12,559011.0,0.0,0.0
11:13:12,558936.0,0.0,0.0
11:13:12,558934.0,0.0,0.0
11:13:12,559039.0,0.0,0.0
11:13:12,558928.0,0.0,0.0
11:13:12,559029.0,0.0,0.0
11:13:12,559053.0,0.0,0.0
11:13:12,558943.0,0.0,0.0
11:13:12,559136.0,0.0,0.0
11:13:12,558819.0,0.0,0.0
11:13:12,559121.0,0.0,0.0
11:13:12,558937.0,0.0,0.0
11:13:12,559013.0,0.0,0.0
11:13:12,559018.0,0.0,0.0
11:13:12,558951.0,0.0,0.0
11:13:12,559001.0,0.0,0.0
11:13:12,559099.0,0.0,0.0
11:13:12,558965.0,0.0,0.0
11:13:12,559188.0,0.0,0.0
11:13:12,558875.0,0.0,0.0
11:13:12,559043.0,0.0,0.0
11:13:12,558919.0,0.0,0.0
11:13:12,558970.0,0.0,0.0
11:13:12,559086.0,0.0,0.0
11:13:12,559014.0,0.0,0.0
11:13:12,559204.0,0.0,0.0
11:13:12,559074.0,0.0,0.0
11:13:12,559063.0,0.0,0.0
11:13:12,559144.0,0.0,0.0
11:13:12,558988.0,0.0,0.0
11:13:12,559084.0,0.0,0.0
11:13:12,559066.0,0.0,0.0
11:13:12,558994.0,0.0,0.0
11:13:12,559207.0,0.0,0.0
11:13:12,558933.0,0.0,0.0
11:13:12,559191.0,0.0,0.0
11:13:12,558982.0,0.0,0.0
11:13:12,559076.0,0.0,0.0
11:13:12,559071.0,0.0,0.0
11:13:12,558985.0,0.0,0.0
11:13:12,559034.0,0.0,0.0
11:13:12,559064.0,0.0,0.0
11:13:12,558916.0,0.0,0.0
11:13:12,559119.0,0.0,0.0
11:13:12,558844.0,0.0,0.0
11:13:12,559082.0,0.0,0.0
11:13:12,558901.0,0.0,0.0
11:13:12,558948.0,0.0,0.0
11:13:12,559049.0,0.0,0.0
11:13:12,558920.0,0.0,0.0
11:13:12,559007.0,0.0,0.0
11:13:12,558891.0,0.0,0.0
11:13:12,558916.0,0.0,0.0
11:13:12,559007.0,0.0,0.0
11:13:12,558882.0,0.0,0.0
11:13:12,558971.0,0.0,0.0
11:13:12,558949.0,0.0,0.0
11:13:12,558885.0,0.0,0.0
11:13:12,559086.0,0.0,0.0
11:13:12,558783.0,0.0,0.0
11:13:12,559080.0,0.0,0.0
11:13:12,558876.0,0.0,0.0
11:13:12,558973.0,0.0,0.0
11:13:12,558959.0,0.0,0.0
11:13:12,558929.0,0.0,0.0
11:13:12,558957.0,0.0,0.0
11:13:12,559003.0,0.0,0.0
11:13:12,558956.0,0.0,0.0
11:13:12,559186.0,0.0,0.0
11:13:12,558893.0,0.0,0.0
11:13:12,559159.0,0.0,0.0
11:13:12,559011.0,0.0,0.0
11:13:12,559021.0,0.0,0.0
11:13:12,559099.0,0.0,0.0
11:13:12,558929.0,0.0,0.0
11:13:12,559114.0,0.0,0.0
11:13:12,559053.0,0.0,0.0
11:13:12,559028.0,0.0,0.0
11:13:12,559061.0,0.0,0.0
11:13:12,558979.0,0.0,0.0
11:13:12,559071.0,0.0,0.0
11:13:12,559033.0,0.0,0.0
11:13:12,558929.0,0.0,0.0
11:13:12,559117.0,0.0,0.0
11:13:12,558846.0,0.0,0.0
11:13:12,559172.0,0.0,0.0
11:13:12,558974.0,0.0,0.0
11:13:12,559056.0,0.0,0.0
11:13:12,559066.0,0.0,0.0
11:13:12,558979.0,0.0,0.0
11:13:12,559002.0,0.0,0.0
11:13:12,559053.0,0.0,0.0
11:13:12,558974.0,0.0,0.0
11:13:12,559181.0,0.0,0.0
11:13:12,558898.0,0.0,0.0
11:13:12,559133.0,0.0,0.0
11:13:12,559002.0,0.0,0.0
11:13:12,559032.0,0.0,0.0
11:13:12,559052.0,0.0,0.0
11:13:12,558827.0,0.0,0.0
11:13:12,558994.0,0.0,0.0
11:13:12,558919.0,0.0,0.0
11:13:12,559026.0,0.0,0.0
11:13:12,559109.0,0.0,0.0
11:13:12,558959.0,0.0,0.0
11:13:13,559040.0,0.0,0.0
11:13:13,559024.0,0.0,0.0
11:13:13,558908.0,0.0,0.0
11:13:13,559077.0,0.0,0.0
11:13:13,558779.0,0.0,0.0
11:13:13,559068.0,0.0,0.0
11:13:13,558875.0,0.0,0.0
11:13:13,558950.0,0.0,0.0
11:13:13,558926.0,0.0,0.0
11:13:13,558928.0,0.0,0.0
11:13:13,558963.0,0.0,0.0
11:13:13,558937.0,0.0,0.0
11:13:13,558855.0,0.0,0.0
11:13:13,559021.0,0.0,0.0
11:13:13,558696.0,0.0,0.0
11:13:13,558888.0,0.0,0.0
11:13:13,558769.0,0.0,0.0
11:13:13,558784.0,0.0,0.0
11:13:13,558859.0,0.0,0.0
11:13:13,558706.0,0.0,0.0
11:13:13,558856.0,0.0,0.0
11:13:13,558720.0,0.0,0.0
11:13:13,558724.0,0.0,0.0
11:13:13,558830.0,0.0,0.0
11:13:13,558669.0,0.0,0.0
11:13:13,558779.0,0.0,0.0
11:13:13,558793.0,0.0,0.0
11:13:13,558640.0,0.0,0.0
11:13:13,558883.0,0.0,0.0
11:13:13,558578.0,0.0,0.0
11:13:13,558876.0,0.0,0.0
11:13:13,558675.0,0.0,0.0
11:13:13,558779.0,0.0,0.0
11:13:13,558764.0,0.0,0.0
11:13:13,558705.0,0.0,0.0
11:13:13,558776.0,0.0,0.0
11:13:13,558757.0,0.0,0.0
11:13:13,558669.0,0.0,0.0
11:13:13,558851.0,0.0,0.0
11:13:13,558609.0,0.0,0.0
11:13:13,558863.0,0.0,0.0
11:13:13,558732.0,0.0,0.0
11:13:13,558758.0,0.0,0.0
11:13:13,558806.0,0.0,0.0
11:13:13,558655.0,0.0,0.0
11:13:13,558787.0,0.0,0.0
11:13:13,558701.0,0.0,0.0
11:13:13,558739.0,0.0,0.0
11:13:13,558822.0,0.0,0.0
11:13:13,558683.0,0.0,0.0
11:13:13,558807.0,0.0,0.0
11:13:13,558783.0,0.0,0.0
11:13:13,558653.0,0.0,0.0
11:13:13,558819.0,0.0,0.0
11:13:13,558548.0,0.0,0.0
11:13:13,558834.0,0.0,0.0
11:13:13,558638.0,0.0,0.0
11:13:13,558709.0,0.0,0.0
11:13:13,558702.0,0.0,0.0
11:13:13,558659.0,0.0,0.0
11:13:13,558691.0,0.0,0.0
11:13:13,558696.0,0.0,0.0
11:13:13,558604.0,0.0,0.0
11:13:13,558824.0,0.0,0.0
11:13:13,558530.0,0.0,0.0
11:13:13,558787.0,0.0,0.0
11:13:13,558660.0,0.0,0.0
11:13:13,558655.0,0.0,0.0
11:13:13,558775.0,0.0,0.0
11:13:13,558629.0,0.0,0.0
11:13:13,558813.0,0.0,0.0
11:13:13,558700.0,0.0,0.0
11:13:13,558659.0,0.0,0.0
11:13:13,558588.0,0.0,0.0
11:13:13,558453.0,0.0,0.0
11:13:13,558601.0,0.0,0.0
11:13:13,558651.0,0.0,0.0
11:13:13,558653.0,0.0,0.0
11:13:13,558816.0,0.0,0.0
11:13:13,558510.0,0.0,0.0
11:13:13,558794.0,0.0,0.0
11:13:13,558580.0,0.0,0.0
11:13:13,558652.0,0.0,0.0
11:13:13,558621.0,0.0,0.0
11:13:13,558550.0,0.0,0.0
11:13:13,558626.0,0.0,0.0
11:13:13,558637.0,0.0,0.0
11:13:13,558492.0,0.0,0.0
11:13:13,558709.0,0.0,0.0
11:13:13,558461.0,0.0,0.0
11:13:13,558699.0,0.0,0.0
11:13:13,558541.0,0.0,0.0
11:13:13,558589.0,0.0,0.0
11:13:13,558589.0,0.0,0.0
11:13:13,558393.0,0.0,0.0
11:13:13,558536.0,0.0,0.0
11:13:13,558448.0,0.0,0.0
11:13:13,558451.0,0.0,0.0
11:13:13,558518.0,0.0,0.0
11:13:13,558390.0,0.0,0.0
11:13:13,558480.0,0.0,0.0
11:13:13,558459.0,0.0,0.0
11:13:13,558312.0,0.0,0.0
11:13:13,558509.0,0.0,0.0
11:13:13,558238.0,0.0,0.0
11:13:13,558521.0,0.0,0.0
11:13:13,558269.0,0.0,0.0
11:13:13,558369.0,0.0,0.0
11:13:13,558343.0,0.0,0.0
11:13:13,558328.0,0.0,0.0
11:13:13,558367.0,0.0,0.0
11:13:13,558363.0,0.0,0.0
11:13:13,558261.0,0.0,0.0
11:13:13,558449.0,0.0,0.0
11:13:13,558191.0,0.0,0.0
11:13:13,558441.0,0.0,0.0
11:13:13,558334.0,0.0,0.0
11:13:13,558322.0,0.0,0.0
11:13:13,558366.0,0.0,0.0
11:13:13,558241.0,0.0,0.0
11:13:13,558394.0,0.0,0.0
11:13:13,558287.0,0.0,0.0
11:13:13,558301.0,0.0,0.0
11:13:13,558380.0,0.0,0.0
11:13:13,558248.0,0.0,0.0
11:13:14,558332.0,0.0,0.0
11:13:14,558276.0,0.0,0.0
11:13:14,558178.0,0.0,0.0
11:13:14,558460.0,0.0,0.0
11:13:14,558180.0,0.0,0.0
11:13:14,558447.0,0.0,0.0
11:13:14,558219.0,0.0,0.0
11:13:14,558321.0,0.0,0.0
11:13:14,558305.0,0.0,0.0
11:13:14,558253.0,0.0,0.0
11:13:14,558301.0,0.0,0.0
11:13:14,558288.0,0.0,0.0
11:13:14,558186.0,0.0,0.0
11:13:14,558373.0,0.0,0.0
11:13:14,558121.0,0.0,0.0
11:13:14,558344.0,0.0,0.0
11:13:14,558164.0,0.0,0.0
11:13:14,558208.0,0.0,0.0
11:13:14,558264.0,0.0,0.0
11:13:14,558135.0,0.0,0.0
11:13:14,558318.0,0.0,0.0
11:13:14,558199.0,0.0,0.0
11:13:14,558228.0,0.0,0.0
11:13:14,558264.0,0.0,0.0
11:13:14,558137.0,0.0,0.0
11:13:14,558252.0,0.0,0.0
11:13:14,558219.0,0.0,0.0
11:13:14,558127.0,0.0,0.0
11:13:14,558397.0,0.0,0.0
11:13:14,558142.0,0.0,0.0
11:13:14,558309.0,0.0,0.0
11:13:14,557969.0,0.0,0.0
11:13:14,558074.0,0.0,0.0
11:13:14,558103.0,0.0,0.0
11:13:14,558167.0,0.0,0.0
11:13:14,558242.0,0.0,0.0
11:13:14,558254.0,0.0,0.0
11:13:14,558127.0,0.0,0.0
11:13:14,558271.0,0.0,0.0
11:13:14,557974.0,0.0,0.0
11:13:14,558232.0,0.0,0.0
11:13:14,558088.0,0.0,0.0
11:13:14,558076.0,0.0,0.0
11:13:14,558138.0,0.0,0.0
11:13:14,558009.0,0.0,0.0
11:13:14,558192.0,0.0,0.0
11:13:14,558084.0,0.0,0.0
11:13:14,558058.0,0.0,0.0
11:13:14,558109.0,0.0,0.0
11:13:14,558012.0,0.0,0.0
11:13:14,558069.0,0.0,0.0
11:13:14,557983.0,0.0,0.0
11:13:14,557903.0,0.0,0.0
11:13:14,558092.0,0.0,0.0
11:13:14,557806.0,0.0,0.0
11:13:14,558092.0,0.0,0.0
11:13:14,557866.0,0.0,0.0
11:13:14,558004.0,0.0,0.0
11:13:14,557948.0,0.0,0.0
11:13:14,557880.0,0.0,0.0
11:13:14,557919.0,0.0,0.0
11:13:14,557921.0,0.0,0.0
11:13:14,557834.0,0.0,0.0
11:13:14,558051.0,0.0,0.0
11:13:14,557747.0,0.0,0.0
11:13:14,557969.0,0.0,0.0
11:13:14,557790.0,0.0,0.0
11:13:14,557818.0,0.0,0.0
11:13:14,557868.0,0.0,0.0
11:13:14,557721.0,0.0,0.0
11:13:14,557895.0,0.0,0.0
11:13:14,557811.0,0.0,0.0
11:13:14,557790.0,0.0,0.0
11:13:14,557832.0,0.0,0.0
11:13:14,557709.0,0.0,0.0
11:13:14,557854.0,0.0,0.0
11:13:14,557846.0,0.0,0.0
11:13:14,557734.0,0.0,0.0
11:13:14,557938.0,0.0,0.0
11:13:14,557650.0,0.0,0.0
11:13:14,557911.0,0.0,0.0
11:13:14,557673.0,0.0,0.0
11:13:14,557807.0,0.0,0.0
11:13:14,557766.0,0.0,0.0
11:13:14,557728.0,0.0,0.0
11:13:14,557803.0,0.0,0.0
11:13:14,557812.0,0.0,0.0
11:13:14,557708.0,0.0,0.0
11:13:14,557886.0,0.0,0.0
11:13:14,557604.0,0.0,0.0
11:13:14,557829.0,0.0,0.0
11:13:14,557646.0,0.0,0.0
11:13:14,557724.0,0.0,0.0
11:13:14,557798.0,0.0,0.0
11:13:14,557594.0,0.0,0.0
11:13:14,557783.0,0.0,0.0
11:13:14,557679.0,0.0,0.0
11:13:14,557677.0,0.0,0.0
11:13:14,557735.0,0.0,0.0
11:13:14,557664.0,0.0,0.0
11:13:14,557748.0,0.0,0.0
11:13:14,557676.0,0.0,0.0
11:13:14,557604.0,0.0,0.0
11:13:14,557784.0,0.0,0.0
11:13:14,557494.0,0.0,0.0
11:13:14,557778.0,0.0,0.0
11:13:14,557549.0,0.0,0.0
11:13:14,557690.0,0.0,0.0
11:13:14,557620.0,0.0,0.0
11:13:14,557556.0,0.0,0.0
11:13:14,557637.0,0.0,0.0
11:13:14,557669.0,0.0,0.0
11:13:14,557504.0,0.0,0.0
11:13:14,557701.0,0.0,0.0
11:13:14,557368.0,0.0,0.0
11:13:14,557649.0,0.0,0.0
11:13:14,557545.0,0.0,0.0
11:13:14,557613.0,0.0,0.0
11:13:14,557658.0,0.0,0.0
11:13:14,557343.0,0.0,0.0
11:13:14,557449.0,0.0,0.0
11:13:14,557353.0,0.0,0.0
11:13:14,557521.0,0.0,0.0
11:13:14,557681.0,0.0,0.0
11:13:14,557568.0,0.0,0.0
11:13:15,557611.0,0.0,0.0
11:13:15,557562.0,0.0,0.0
11:13:15,557483.0,0.0,0.0
11:13:15,557679.0,0.0,0.0
11:13:15,557378.0,0.0,0.0
11:13:15,557611.0,0.0,0.0
11:13:15,557374.0,0.0,0.0
11:13:15,557519.0,0.0,0.0
11:13:15,557439.0,0.0,0.0
11:13:15,557396.0,0.0,0.0
11:13:15,557411.0,0.0,0.0
11:13:15,557388.0,0.0,0.0
11:13:15,557313.0,0.0,0.0
11:13:15,557516.0,0.0,0.0
11:13:15,557211.0,0.0,0.0
11:13:15,557390.0,0.0,0.0
11:13:15,557208.0,0.0,0.0
11:13:15,557263.0,0.0,0.0
11:13:15,557314.0,0.0,0.0
11:13:15,557179.0,0.0,0.0
11:13:15,557345.0,0.0,0.0
11:13:15,557260.0,0.0,0.0
11:13:15,557258.0,0.0,0.0
11:13:15,557263.0,0.0,0.0
11:13:15,557183.0,0.0,0.0
11:13:15,557288.0,0.0,0.0
11:13:15,557192.0,0.0,0.0
11:13:15,557099.0,0.0,0.0
11:13:15,557291.0,0.0,0.0
11:13:15,557010.0,0.0,0.0
11:13:15,557289.0,0.0,0.0
11:13:15,557049.0,0.0,0.0
11:13:15,557198.0,0.0,0.0
11:13:15,557158.0,0.0,0.0
11:13:15,557137.0,0.0,0.0
11:13:15,557171.0,0.0,0.0
11:13:15,557194.0,0.0,0.0
11:13:15,557067.0,0.0,0.0
11:13:15,557270.0,0.0,0.0
11:13:15,557017.0,0.0,0.0
11:13:15,557244.0,0.0,0.0
11:13:15,557111.0,0.0,0.0
11:13:15,557156.0,0.0,0.0
11:13:15,557224.0,0.0,0.0
11:13:15,557084.0,0.0,0.0
11:13:15,557226.0,0.0,0.0
11:13:15,557046.0,0.0,0.0
11:13:15,557108.0,0.0,0.0
11:13:15,557199.0,0.0,0.0
11:13:15,557044.0,0.0,0.0
11:13:15,557116.0,0.0,0.0
11:13:15,557096.0,0.0,0.0
11:13:15,557044.0,0.0,0.0
11:13:15,557228.0,0.0,0.0
11:13:15,556952.0,0.0,0.0
11:13:15,557277.0,0.0,0.0
11:13:15,557061.0,0.0,0.0
11:13:15,557177.0,0.0,0.0
11:13:15,557149.0,0.0,0.0
11:13:15,557086.0,0.0,0.0
11:13:15,557156.0,0.0,0.0
11:13:15,557193.0,0.0,0.0
11:13:15,557079.0,0.0,0.0
11:13:15,557257.0,0.0,0.0
11:13:15,557015.0,0.0,0.0
11:13:15,557241.0,0.0,0.0
11:13:15,557070.0,0.0,0.0
11:13:15,557148.0,0.0,0.0
11:13:15,557179.0,0.0,0.0
11:13:15,557033.0,0.0,0.0
11:13:15,557196.0,0.0,0.0
11:13:15,557058.0,0.0,0.0
11:13:15,557088.0,0.0,0.0
11:13:15,557135.0,0.0,0.0
11:13:15,557038.0,0.0,0.0
11:13:15,557096.0,0.0,0.0
11:13:15,557079.0,0.0,0.0
11:13:15,557019.0,0.0,0.0
11:13:15,557236.0,0.0,0.0
11:13:15,556944.0,0.0,0.0
11:13:15,557245.0,0.0,0.0
11:13:15,556998.0,0.0,0.0
11:13:15,557144.0,0.0,0.0
11:13:15,557151.0,0.0,0.0
11:13:15,557146.0,0.0,0.0
11:13:15,557204.0,0.0,0.0
11:13:15,557218.0,0.0,0.0
11:13:15,557081.0,0.0,0.0
11:13:15,557079.0,0.0,0.0
11:13:15,556783.0,0.0,0.0
11:13:15,557079.0,0.0,0.0
11:13:15,556983.0,0.0,0.0
11:13:15,557118.0,0.0,0.0
11:13:15,557189.0,0.0,0.0
11:13:15,557060.0,0.0,0.0
11:13:15,557202.0,0.0,0.0
11:13:15,557048.0,0.0,0.0
11:13:15,557116.0,0.0,0.0
11:13:15,557139.0,0.0,0.0
11:13:15,557034.0,0.0,0.0
11:13:15,557146.0,0.0,0.0
11:13:15,557080.0,0.0,0.0
11:13:15,557023.0,0.0,0.0
11:13:15,557224.0,0.0,0.0
11:13:15,556912.0,0.0,0.0
11:13:15,557177.0,0.0,0.0
11:13:15,556947.0,0.0,0.0
11:13:15,557048.0,0.0,0.0
11:13:15,557019.0,0.0,0.0
11:13:15,556964.0,0.0,0.0
11:13:15,557010.0,0.0,0.0
11:13:15,557024.0,0.0,0.0
11:13:15,556894.0,0.0,0.0
11:13:15,557036.0,0.0,0.0
11:13:15,556875.0,0.0,0.0
11:13:15,557096.0,0.0,0.0
11:13:15,556861.0,0.0,0.0
11:13:15,556924.0,0.0,0.0
11:13:15,556942.0,0.0,0.0
11:13:15,556792.0,0.0,0.0
11:13:15,556945.0,0.0,0.0
11:13:15,556828.0,0.0,0.0
11:13:15,556883.0,0.0,0.0
11:13:15,556924.0,0.0,0.0
11:13:15,556812.0,0.0,0.0
11:13:16,556947.0,0.0,0.0
11:13:16,556907.0,0.0,0.0
11:13:16,556818.0,0.0,0.0
11:13:16,556983.0,0.0,0.0
11:13:16,556718.0,0.0,0.0
11:13:16,557000.0,0.0,0.0
11:13:16,556758.0,0.0,0.0
11:13:16,556899.0,0.0,0.0
11:13:16,556817.0,0.0,0.0
11:13:16,556781.0,0.0,0.0
11:13:16,556850.0,0.0,0.0
11:13:16,556854.0,0.0,0.0
11:13:16,556799.0,0.0,0.0
11:13:16,556998.0,0.0,0.0
11:13:16,556729.0,0.0,0.0
11:13:16,556964.0,0.0,0.0
11:13:16,556771.0,0.0,0.0
11:13:16,556897.0,0.0,0.0
11:13:16,556927.0,0.0,0.0
11:13:16,556774.0,0.0,0.0
11:13:16,556925.0,0.0,0.0
11:13:16,556777.0,0.0,0.0
11:13:16,556846.0,0.0,0.0
11:13:16,556911.0,0.0,0.0
11:13:16,556749.0,0.0,0.0
11:13:16,556894.0,0.0,0.0
11:13:16,556806.0,0.0,0.0
11:13:16,556758.0,0.0,0.0
11:13:16,556903.0,0.0,0.0
11:13:16,556658.0,0.0,0.0
11:13:16,556910.0,0.0,0.0
11:13:16,556708.0,0.0,0.0
11:13:16,556824.0,0.0,0.0
11:13:16,556813.0,0.0,0.0
11:13:16,556738.0,0.0,0.0
11:13:16,556836.0,0.0,0.0
11:13:16,556834.0,0.0,0.0
11:13:16,556771.0,0.0,0.0
11:13:16,556963.0,0.0,0.0
11:13:16,556696.0,0.0,0.0
11:13:16,556966.0,0.0,0.0
11:13:16,556780.0,0.0,0.0
11:13:16,556891.0,0.0,0.0
11:13:16,556881.0,0.0,0.0
11:13:16,556765.0,0.0,0.0
11:13:16,556870.0,0.0,0.0
11:13:16,556770.0,0.0,0.0
11:13:16,556836.0,0.0,0.0
11:13:16,556890.0,0.0,0.0
11:13:16,556756.0,0.0,0.0
11:13:16,556881.0,0.0,0.0
11:13:16,556783.0,0.0,0.0
11:13:16,556734.0,0.0,0.0
11:13:16,556904.0,0.0,0.0
11:13:16,556659.0,0.0,0.0
11:13:16,556921.0,0.0,0.0
11:13:16,556712.0,0.0,0.0
11:13:16,556872.0,0.0,0.0
11:13:16,556876.0,0.0,0.0
11:13:16,556819.0,0.0,0.0
11:13:16,556741.0,0.0,0.0
11:13:16,556638.0,0.0,0.0
11:13:16,556589.0,0.0,0.0
11:13:16,556861.0,0.0,0.0
11:13:16,556721.0,0.0,0.0
11:13:16,556999.0,0.0,0.0
11:13:16,556774.0,0.0,0.0
11:13:16,556836.0,0.0,0.0
11:13:16,556847.0,0.0,0.0
11:13:16,556695.0,0.0,0.0
11:13:16,556835.0,0.0,0.0
11:13:16,556666.0,0.0,0.0
11:13:16,556706.0,0.0,0.0
11:13:16,556794.0,0.0,0.0
11:13:16,556648.0,0.0,0.0
11:13:16,556766.0,0.0,0.0
11:13:16,556706.0,0.0,0.0
11:13:16,556709.0,0.0,0.0
11:13:16,556837.0,0.0,0.0
11:13:16,556613.0,0.0,0.0
11:13:16,556871.0,0.0,0.0
11:13:16,556633.0,0.0,0.0
11:13:16,556736.0,0.0,0.0
11:13:16,556674.0,0.0,0.0
11:13:16,556648.0,0.0,0.0
11:13:16,556742.0,0.0,0.0
11:13:16,556666.0,0.0,0.0
11:13:16,556613.0,0.0,0.0
11:13:16,556757.0,0.0,0.0
11:13:16,556488.0,0.0,0.0
11:13:16,556759.0,0.0,0.0
11:13:16,556488.0,0.0,0.0
11:13:16,556649.0,0.0,0.0
11:13:16,556632.0,0.0,0.0
11:13:16,556539.0,0.0,0.0
11:13:16,556706.0,0.0,0.0
11:13:16,556589.0,0.0,0.0
11:13:16,556647.0,0.0,0.0
11:13:16,556694.0,0.0,0.0
11:13:16,556546.0,0.0,0.0
11:13:16,556714.0,0.0,0.0
11:13:16,556637.0,0.0,0.0
11:13:16,556646.0,0.0,0.0
11:13:16,556764.0,0.0,0.0
11:13:16,556547.0,0.0,0.0
11:13:16,556806.0,0.0,0.0
11:13:16,556616.0,0.0,0.0
11:13:16,556764.0,0.0,0.0
11:13:16,556722.0,0.0,0.0
11:13:16,556638.0,0.0,0.0
11:13:16,556702.0,0.0,0.0
11:13:16,556671.0,0.0,0.0
11:13:16,556631.0,0.0,0.0
11:13:16,556819.0,0.0,0.0
11:13:16,556561.0,0.0,0.0
11:13:16,556818.0,0.0,0.0
11:13:16,556570.0,0.0,0.0
11:13:16,556683.0,0.0,0.0
11:13:16,556723.0,0.0,0.0
11:13:16,556591.0,0.0,0.0
11:13:16,556749.0,0.0,0.0
11:13:16,556655.0,0.0,0.0
11:13:16,556685.0,0.0,0.0
11:13:16,556755.0,0.0,0.0
11:13:16,556628.0,0.0,0.0
11:13:17,556771.0,0.0,0.0
11:13:17,556698.0,0.0,0.0
11:13:17,556704.0,0.0,0.0
11:13:17,556771.0,0.0,0.0
11:13:17,556516.0,0.0,0.0
11:13:17,556814.0,0.0,0.0
11:13:17,556587.0,0.0,0.0
11:13:17,556723.0,0.0,0.0
11:13:17,556697.0,0.0,0.0
11:13:17,556644.0,0.0,0.0
11:13:17,556734.0,0.0,0.0
11:13:17,556703.0,0.0,0.0
11:13:17,556666.0,0.0,0.0
11:13:17,556809.0,0.0,0.0
11:13:17,556557.0,0.0,0.0
11:13:17,556828.0,0.0,0.0
11:13:17,556681.0,0.0,0.0
11:13:17,556757.0,0.0,0.0
11:13:17,556739.0,0.0,0.0
11:13:17,556663.0,0.0,0.0
11:13:17,556811.0,0.0,0.0
11:13:17,556709.0,0.0,0.0
11:13:17,556771.0,0.0,0.0
11:13:17,556790.0,0.0,0.0
11:13:17,556653.0,0.0,0.0
11:13:17,556817.0,0.0,0.0
11:13:17,556762.0,0.0,0.0
11:13:17,556751.0,0.0,0.0
11:13:17,556832.0,0.0,0.0
11:13:17,556669.0,0.0,0.0
11:13:17,556971.0,0.0,0.0
11:13:17,556780.0,0.0,0.0
11:13:17,556854.0,0.0,0.0
11:13:17,556678.0,0.0,0.0
11:13:17,556623.0,0.0,0.0
11:13:17,556732.0,0.0,0.0
11:13:17,556798.0,0.0,0.0
11:13:17,556866.0,0.0,0.0
11:13:17,557011.0,0.0,0.0
11:13:17,556759.0,0.0,0.0
11:13:17,557019.0,0.0,0.0
11:13:17,556760.0,0.0,0.0
11:13:17,556859.0,0.0,0.0
11:13:17,556853.0,0.0,0.0
11:13:17,556731.0,0.0,0.0
11:13:17,556916.0,0.0,0.0
11:13:17,556798.0,0.0,0.0
11:13:17,556843.0,0.0,0.0
11:13:17,556907.0,0.0,0.0
11:13:17,556797.0,0.0,0.0
11:13:17,556935.0,0.0,0.0
11:13:17,556861.0,0.0,0.0
11:13:17,556866.0,0.0,0.0
11:13:17,557008.0,0.0,0.0
11:13:17,556760.0,0.0,0.0
11:13:17,557027.0,0.0,0.0
11:13:17,556822.0,0.0,0.0
11:13:17,556944.0,0.0,0.0
11:13:17,556920.0,0.0,0.0
11:13:17,556898.0,0.0,0.0
11:13:17,556952.0,0.0,0.0
11:13:17,556863.0,0.0,0.0
11:13:17,556840.0,0.0,0.0
11:13:17,556996.0,0.0,0.0
11:13:17,556766.0,0.0,0.0
11:13:17,557046.0,0.0,0.0
11:13:17,556816.0,0.0,0.0
11:13:17,556961.0,0.0,0.0
11:13:17,556964.0,0.0,0.0
11:13:17,556902.0,0.0,0.0
11:13:17,557091.0,0.0,0.0
11:13:17,556864.0,0.0,0.0
11:13:17,557036.0,0.0,0.0
11:13:17,557067.0,0.0,0.0
11:13:17,557032.0,0.0,0.0
11:13:17,557164.0,0.0,0.0
11:13:17,557115.0,0.0,0.0
11:13:17,557074.0,0.0,0.0
11:13:17,557248.0,0.0,0.0
11:13:17,556994.0,0.0,0.0
11:13:17,557290.0,0.0,0.0
11:13:17,557086.0,0.0,0.0
11:13:17,557201.0,0.0,0.0
11:13:17,557146.0,0.0,0.0
11:13:17,557120.0,0.0,0.0
11:13:17,557193.0,0.0,0.0
11:13:17,557158.0,0.0,0.0
11:13:17,557137.0,0.0,0.0
11:13:17,557279.0,0.0,0.0
11:13:17,557074.0,0.0,0.0
11:13:17,557296.0,0.0,0.0
11:13:17,557127.0,0.0,0.0
11:13:17,557214.0,0.0,0.0
11:13:17,557245.0,0.0,0.0
11:13:17,557133.0,0.0,0.0
11:13:17,557333.0,0.0,0.0
11:13:17,557173.0,0.0,0.0
11:13:17,557284.0,0.0,0.0
11:13:17,557298.0,0.0,0.0
11:13:17,557229.0,0.0,0.0
11:13:17,557293.0,0.0,0.0
11:13:17,557217.0,0.0,0.0
11:13:17,557219.0,0.0,0.0
11:13:17,557378.0,0.0,0.0
11:13:17,557124.0,0.0,0.0
11:13:17,557414.0,0.0,0.0
11:13:17,557203.0,0.0,0.0
11:13:17,557402.0,0.0,0.0
11:13:17,557298.0,0.0,0.0
11:13:17,557254.0,0.0,0.0
11:13:17,557364.0,0.0,0.0
11:13:17,557379.0,0.0,0.0
11:13:17,557321.0,0.0,0.0
11:13:17,557434.0,0.0,0.0
11:13:17,557224.0,0.0,0.0
11:13:17,557472.0,0.0,0.0
11:13:17,557313.0,0.0,0.0
11:13:17,557417.0,0.0,0.0
11:13:17,557453.0,0.0,0.0
11:13:17,557366.0,0.0,0.0
11:13:17,557558.0,0.0,0.0
11:13:17,557399.0,0.0,0.0
11:13:17,557431.0,0.0,0.0
11:13:17,557319.0,0.0,0.0
11:13:17,557315.0,0.0,0.0
11:13:18,557406.0,0.0,0.0
11:13:18,557386.0,0.0,0.0
11:13:18,557435.0,0.0,0.0
11:13:18,557539.0,0.0,0.0
11:13:18,557293.0,0.0,0.0
11:13:18,557606.0,0.0,0.0
11:13:18,557324.0,0.0,0.0
11:13:18,557479.0,0.0,0.0
11:13:18,557451.0,0.0,0.0
11:13:18,557419.0,0.0,0.0
11:13:18,557503.0,0.0,0.0
11:13:18,557508.0,0.0,0.0
11:13:18,557434.0,0.0,0.0
11:13:18,557549.0,0.0,0.0
11:13:18,557342.0,0.0,0.0
11:13:18,557588.0,0.0,0.0
11:13:18,557419.0,0.0,0.0
11:13:18,557495.0,0.0,0.0
11:13:18,557552.0,0.0,0.0
11:13:18,557418.0,0.0,0.0
11:13:18,557593.0,0.0,0.0
11:13:18,557436.0,0.0,0.0
11:13:18,557541.0,0.0,0.0
11:13:18,557550.0,0.0,0.0
11:13:18,557485.0,0.0,0.0
11:13:18,557549.0,0.0,0.0
11:13:18,557504.0,0.0,0.0
11:13:18,557511.0,0.0,0.0
11:13:18,557657.0,0.0,0.0
11:13:18,557384.0,0.0,0.0
11:13:18,557671.0,0.0,0.0
11:13:18,557463.0,0.0,0.0
11:13:18,557678.0,0.0,0.0
11:13:18,557609.0,0.0,0.0
11:13:18,557583.0,0.0,0.0
11:13:18,557683.0,0.0,0.0
11:13:18,557620.0,0.0,0.0
11:13:18,557611.0,0.0,0.0
11:13:18,557754.0,0.0,0.0
11:13:18,557551.0,0.0,0.0
11:13:18,557774.0,0.0,0.0
11:13:18,557608.0,0.0,0.0
11:13:18,557711.0,0.0,0.0
11:13:18,557737.0,0.0,0.0
11:13:18,557607.0,0.0,0.0
11:13:18,557792.0,0.0,0.0
11:13:18,557616.0,0.0,0.0
11:13:18,557739.0,0.0,0.0
11:13:18,557694.0,0.0,0.0
11:13:18,557676.0,0.0,0.0
11:13:18,557791.0,0.0,0.0
11:13:18,557724.0,0.0,0.0
11:13:18,557703.0,0.0,0.0
11:13:18,557832.0,0.0,0.0
11:13:18,557599.0,0.0,0.0
11:13:18,557879.0,0.0,0.0
11:13:18,557608.0,0.0,0.0
11:13:18,557796.0,0.0,0.0
11:13:18,557763.0,0.0,0.0
11:13:18,557740.0,0.0,0.0
11:13:18,557785.0,0.0,0.0
11:13:18,557689.0,0.0,0.0
11:13:18,557664.0,0.0,0.0
11:13:18,557780.0,0.0,0.0
11:13:18,557584.0,0.0,0.0
11:13:18,557793.0,0.0,0.0
11:13:18,557624.0,0.0,0.0
11:13:18,557704.0,0.0,0.0
11:13:18,557713.0,0.0,0.0
11:13:18,557591.0,0.0,0.0
11:13:18,557804.0,0.0,0.0
11:13:18,557647.0,0.0,0.0
11:13:18,557749.0,0.0,0.0
11:13:18,557764.0,0.0,0.0
11:13:18,557658.0,0.0,0.0
11:13:18,557783.0,0.0,0.0
11:13:18,557731.0,0.0,0.0
11:13:18,557752.0,0.0,0.0
11:13:18,557883.0,0.0,0.0
11:13:18,557619.0,0.0,0.0
11:13:18,557781.0,0.0,0.0
11:13:18,557494.0,0.0,0.0
11:13:18,557713.0,0.0,0.0
11:13:18,557650.0,0.0,0.0
11:13:18,557714.0,0.0,0.0
11:13:18,557810.0,0.0,0.0
11:13:18,557731.0,0.0,0.0
11:13:18,557697.0,0.0,0.0
11:13:18,557807.0,0.0,0.0
11:13:18,557626.0,0.0,0.0
11:13:18,557862.0,0.0,0.0
11:13:18,557679.0,0.0,0.0
11:13:18,557747.0,0.0,0.0
11:13:18,557722.0,0.0,0.0
11:13:18,557631.0,0.0,0.0
11:13:18,557805.0,0.0,0.0
11:13:18,557609.0,0.0,0.0
11:13:18,557731.0,0.0,0.0
11:13:18,557696.0,0.0,0.0
11:13:18,557643.0,0.0,0.0
11:13:18,557731.0,0.0,0.0
11:13:18,557640.0,0.0,0.0
11:13:18,557598.0,0.0,0.0
11:13:18,557721.0,0.0,0.0
11:13:18,557485.0,0.0,0.0
11:13:18,557784.0,0.0,0.0
11:13:18,557491.0,0.0,0.0
11:13:18,557688.0,0.0,0.0
11:13:18,557589.0,0.0,0.0
11:13:18,557541.0,0.0,0.0
11:13:18,557634.0,0.0,0.0
11:13:18,557590.0,0.0,0.0
11:13:18,557549.0,0.0,0.0
11:13:18,557641.0,0.0,0.0
11:13:18,557460.0,0.0,0.0
11:13:18,557662.0,0.0,0.0
11:13:18,557453.0,0.0,0.0
11:13:18,557553.0,0.0,0.0
11:13:18,557593.0,0.0,0.0
11:13:18,557478.0,0.0,0.0
11:13:18,557646.0,0.0,0.0
11:13:18,557479.0,0.0,0.0
11:13:18,557591.0,0.0,0.0
11:13:18,557580.0,0.0,0.0
11:13:18,557520.0,0.0,0.0
11:13:19,557596.0,0.0,0.0
11:13:19,557563.0,0.0,0.0
11:13:19,557549.0,0.0,0.0
11:13:19,557677.0,0.0,0.0
11:13:19,557414.0,0.0,0.0
11:13:19,557726.0,0.0,0.0
11:13:19,557468.0,0.0,0.0
11:13:19,557658.0,0.0,0.0
11:13:19,557559.0,0.0,0.0
11:13:19,557512.0,0.0,0.0
11:13:19,557597.0,0.0,0.0
11:13:19,557556.0,0.0,0.0
11:13:19,557569.0,0.0,0.0
11:13:19,557667.0,0.0,0.0
11:13:19,557430.0,0.0,0.0
11:13:19,557647.0,0.0,0.0
11:13:19,557481.0,0.0,0.0
11:13:19,557605.0,0.0,0.0
11:13:19,557606.0,0.0,0.0
11:13:19,557470.0,0.0,0.0
11:13:19,557676.0,0.0,0.0
11:13:19,557479.0,0.0,0.0
11:13:19,557591.0,0.0,0.0
11:13:19,557536.0,0.0,0.0
11:13:19,557499.0,0.0,0.0
11:13:19,557599.0,0.0,0.0
11:13:19,557513.0,0.0,0.0
11:13:19,557566.0,0.0,0.0
11:13:19,557678.0,0.0,0.0
11:13:19,557467.0,0.0,0.0
11:13:19,557744.0,0.0,0.0
11:13:19,557459.0,0.0,0.0
11:13:19,557652.0,0.0,0.0
11:13:19,557584.0,0.0,0.0
11:13:19,557522.0,0.0,0.0
11:13:19,557479.0,0.0,0.0
11:13:19,557409.0,0.0,0.0
11:13:19,557433.0,0.0,0.0
11:13:19,557628.0,0.0,0.0
11:13:19,557517.0,0.0,0.0
11:13:19,557733.0,0.0,0.0
11:13:19,557478.0,0.0,0.0
11:13:19,557593.0,0.0,0.0
11:13:19,557614.0,0.0,0.0
11:13:19,557509.0,0.0,0.0
11:13:19,557688.0,0.0,0.0
11:13:19,557446.0,0.0,0.0
11:13:19,557539.0,0.0,0.0
11:13:19,557523.0,0.0,0.0
11:13:19,557465.0,0.0,0.0
11:13:19,557579.0,0.0,0.0
11:13:19,557486.0,0.0,0.0
11:13:19,557482.0,0.0,0.0
11:13:19,557606.0,0.0,0.0
11:13:19,557384.0,0.0,0.0
11:13:19,557626.0,0.0,0.0
11:13:19,557359.0,0.0,0.0
11:13:19,557550.0,0.0,0.0
11:13:19,557454.0,0.0,0.0
11:13:19,557398.0,0.0,0.0
11:13:19,557484.0,0.0,0.0
11:13:19,557401.0,0.0,0.0
11:13:19,557456.0,0.0,0.0
11:13:19,557546.0,0.0,0.0
11:13:19,557362.0,0.0,0.0
11:13:19,557562.0,0.0,0.0
11:13:19,557314.0,0.0,0.0
11:13:19,557424.0,0.0,0.0
11:13:19,557413.0,0.0,0.0
11:13:19,557323.0,0.0,0.0
11:13:19,557507.0,0.0,0.0
11:13:19,557273.0,0.0,0.0
11:13:19,557401.0,0.0,0.0
11:13:19,557367.0,0.0,0.0
11:13:19,557310.0,0.0,0.0
11:13:19,557420.0,0.0,0.0
11:13:19,557317.0,0.0,0.0
11:13:19,557348.0,0.0,0.0
11:13:19,557436.0,0.0,0.0
11:13:19,557250.0,0.0,0.0
11:13:19,557553.0,0.0,0.0
11:13:19,557279.0,0.0,0.0
11:13:19,557504.0,0.0,0.0
11:13:19,557386.0,0.0,0.0
11:13:19,557341.0,0.0,0.0
11:13:19,557426.0,0.0,0.0
11:13:19,557353.0,0.0,0.0
11:13:19,557393.0,0.0,0.0
11:13:19,557468.0,0.0,0.0
11:13:19,557266.0,0.0,0.0
11:13:19,557510.0,0.0,0.0
11:13:19,557283.0,0.0,0.0
11:13:19,557410.0,0.0,0.0
11:13:19,557414.0,0.0,0.0
11:13:19,557324.0,0.0,0.0
11:13:19,557476.0,0.0,0.0
11:13:19,557286.0,0.0,0.0
11:13:19,557404.0,0.0,0.0
11:13:19,557401.0,0.0,0.0
11:13:19,557322.0,0.0,0.0
11:13:19,557428.0,0.0,0.0
11:13:19,557360.0,0.0,0.0
11:13:19,557371.0,0.0,0.0
11:13:19,557464.0,0.0,0.0
11:13:19,557263.0,0.0,0.0
11:13:19,557535.0,0.0,0.0
11:13:19,557249.0,0.0,0.0
11:13:19,557478.0,0.0,0.0
11:13:19,557369.0,0.0,0.0
11:13:19,557337.0,0.0,0.0
11:13:19,557404.0,0.0,0.0
11:13:19,557342.0,0.0,0.0
11:13:19,557319.0,0.0,0.0
11:13:19,557431.0,0.0,0.0
11:13:19,557299.0,0.0,0.0
11:13:19,557541.0,0.0,0.0
11:13:19,557291.0,0.0,0.0
11:13:19,557262.0,0.0,0.0
11:13:19,557199.0,0.0,0.0
11:13:19,557111.0,0.0,0.0
11:13:19,557468.0,0.0,0.0
11:13:19,557342.0,0.0,0.0
11:13:19,557418.0,0.0,0.0
11:13:19,557329.0,0.0,0.0
11:13:19,557233.0,0.0,0.0
11:13:20,557297.0,0.0,0.0
11:13:20,557214.0,0.0,0.0
11:13:20,557184.0,0.0,0.0
11:13:20,557314.0,0.0,0.0
11:13:20,557106.0,0.0,0.0
11:13:20,557349.0,0.0,0.0
11:13:20,557088.0,0.0,0.0
11:13:20,557248.0,0.0,0.0
11:13:20,557167.0,0.0,0.0
11:13:20,557154.0,0.0,0.0
11:13:20,557198.0,0.0,0.0
11:13:20,557133.0,0.0,0.0
11:13:20,557148.0,0.0,0.0
11:13:20,557206.0,0.0,0.0
11:13:20,557011.0,0.0,0.0
11:13:20,557214.0,0.0,0.0
11:13:20,556994.0,0.0,0.0
11:13:20,557113.0,0.0,0.0
11:13:20,557080.0,0.0,0.0
11:13:20,556935.0,0.0,0.0
11:13:20,557121.0,0.0,0.0
11:13:20,556899.0,0.0,0.0
11:13:20,557037.0,0.0,0.0
11:13:20,556973.0,0.0,0.0
11:13:20,556921.0,0.0,0.0
11:13:20,557033.0,0.0,0.0
11:13:20,556915.0,0.0,0.0
11:13:20,556901.0,0.0,0.0
11:13:20,556969.0,0.0,0.0
11:13:20,556748.0,0.0,0.0
11:13:20,557086.0,0.0,0.0
11:13:20,556832.0,0.0,0.0
11:13:20,557027.0,0.0,0.0
11:13:20,556963.0,0.0,0.0
11:13:20,556889.0,0.0,0.0
11:13:20,556974.0,0.0,0.0
11:13:20,556906.0,0.0,0.0
11:13:20,556899.0,0.0,0.0
11:13:20,556959.0,0.0,0.0
11:13:20,556823.0,0.0,0.0
11:13:20,557049.0,0.0,0.0
11:13:20,556826.0,0.0,0.0
11:13:20,556933.0,0.0,0.0
11:13:20,556936.0,0.0,0.0
11:13:20,556801.0,0.0,0.0
11:13:20,556992.0,0.0,0.0
11:13:20,556798.0,0.0,0.0
11:13:20,556916.0,0.0,0.0
11:13:20,556871.0,0.0,0.0
11:13:20,556876.0,0.0,0.0
11:13:20,556964.0,0.0,0.0
11:13:20,556858.0,0.0,0.0
11:13:20,556855.0,0.0,0.0
11:13:20,556938.0,0.0,0.0
11:13:20,556721.0,0.0,0.0
11:13:20,557003.0,0.0,0.0
11:13:20,556673.0,0.0,0.0
11:13:20,556886.0,0.0,0.0
11:13:20,556780.0,0.0,0.0
11:13:20,556788.0,0.0,0.0
11:13:20,556904.0,0.0,0.0
11:13:20,556809.0,0.0,0.0
11:13:20,556829.0,0.0,0.0
11:13:20,556908.0,0.0,0.0
11:13:20,556732.0,0.0,0.0
11:13:20,556943.0,0.0,0.0
11:13:20,556751.0,0.0,0.0
11:13:20,556858.0,0.0,0.0
11:13:20,556851.0,0.0,0.0
11:13:20,556736.0,0.0,0.0
11:13:20,556941.0,0.0,0.0
11:13:20,556748.0,0.0,0.0
11:13:20,556873.0,0.0,0.0
11:13:20,556823.0,0.0,0.0
11:13:20,556783.0,0.0,0.0
11:13:20,556834.0,0.0,0.0
11:13:20,556803.0,0.0,0.0
11:13:20,556887.0,0.0,0.0
11:13:20,556924.0,0.0,0.0
11:13:20,556528.0,0.0,0.0
11:13:20,556756.0,0.0,0.0
11:13:20,556485.0,0.0,0.0
11:13:20,556782.0,0.0,0.0
11:13:20,556791.0,0.0,0.0
11:13:20,556789.0,0.0,0.0
11:13:20,556858.0,0.0,0.0
11:13:20,556779.0,0.0,0.0
11:13:20,556800.0,0.0,0.0
11:13:20,556860.0,0.0,0.0
11:13:20,556666.0,0.0,0.0
11:13:20,556900.0,0.0,0.0
11:13:20,556640.0,0.0,0.0
11:13:20,556759.0,0.0,0.0
11:13:20,556761.0,0.0,0.0
11:13:20,556639.0,0.0,0.0
11:13:20,556806.0,0.0,0.0
11:13:20,556568.0,0.0,0.0
11:13:20,556710.0,0.0,0.0
11:13:20,556652.0,0.0,0.0
11:13:20,556619.0,0.0,0.0
11:13:20,556703.0,0.0,0.0
11:13:20,556589.0,0.0,0.0
11:13:20,556591.0,0.0,0.0
11:13:20,556706.0,0.0,0.0
11:13:20,556483.0,0.0,0.0
11:13:20,556777.0,0.0,0.0
11:13:20,556504.0,0.0,0.0
11:13:20,556693.0,0.0,0.0
11:13:20,556588.0,0.0,0.0
11:13:20,556562.0,0.0,0.0
11:13:20,556613.0,0.0,0.0
11:13:20,556539.0,0.0,0.0
11:13:20,556561.0,0.0,0.0
11:13:20,556644.0,0.0,0.0
11:13:20,556462.0,0.0,0.0
11:13:20,556664.0,0.0,0.0
11:13:20,556468.0,0.0,0.0
11:13:20,556591.0,0.0,0.0
11:13:20,556559.0,0.0,0.0
11:13:20,556465.0,0.0,0.0
11:13:20,556666.0,0.0,0.0
11:13:20,556451.0,0.0,0.0
11:13:20,556602.0,0.0,0.0
11:13:20,556527.0,0.0,0.0
11:13:20,556531.0,0.0,0.0
11:13:21,556616.0,0.0,0.0
11:13:21,556502.0,0.0,0.0
11:13:21,556533.0,0.0,0.0
11:13:21,556610.0,0.0,0.0
11:13:21,556407.0,0.0,0.0
11:13:21,556641.0,0.0,0.0
11:13:21,556352.0,0.0,0.0
11:13:21,556595.0,0.0,0.0
11:13:21,556447.0,0.0,0.0
11:13:21,556447.0,0.0,0.0
11:13:21,556516.0,0.0,0.0
11:13:21,556412.0,0.0,0.0
11:13:21,556361.0,0.0,0.0
11:13:21,556474.0,0.0,0.0
11:13:21,556279.0,0.0,0.0
11:13:21,556516.0,0.0,0.0
11:13:21,556297.0,0.0,0.0
11:13:21,556409.0,0.0,0.0
11:13:21,556399.0,0.0,0.0
11:13:21,556291.0,0.0,0.0
11:13:21,556459.0,0.0,0.0
11:13:21,556271.0,0.0,0.0
11:13:21,556398.0,0.0,0.0
11:13:21,556354.0,0.0,0.0
11:13:21,556292.0,0.0,0.0
11:13:21,556398.0,0.0,0.0
11:13:21,556309.0,0.0,0.0
11:13:21,556322.0,0.0,0.0
11:13:21,556436.0,0.0,0.0
11:13:21,556216.0,0.0,0.0
11:13:21,556456.0,0.0,0.0
11:13:21,556149.0,0.0,0.0
11:13:21,556372.0,0.0,0.0
11:13:21,556263.0,0.0,0.0
11:13:21,556269.0,0.0,0.0
11:13:21,556288.0,0.0,0.0
11:13:21,556242.0,0.0,0.0
11:13:21,556285.0,0.0,0.0
11:13:21,556323.0,0.0,0.0
11:13:21,556174.0,0.0,0.0
11:13:21,556403.0,0.0,0.0
11:13:21,556191.0,0.0,0.0
11:13:21,556343.0,0.0,0.0
11:13:21,556257.0,0.0,0.0
11:13:21,556141.0,0.0,0.0
11:13:21,556311.0,0.0,0.0
11:13:21,556111.0,0.0,0.0
11:13:21,556248.0,0.0,0.0
11:13:21,556214.0,0.0,0.0
11:13:21,556194.0,0.0,0.0
11:13:21,556321.0,0.0,0.0
11:13:21,556229.0,0.0,0.0
11:13:21,556069.0,0.0,0.0
11:13:21,556062.0,0.0,0.0
11:13:21,555863.0,0.0,0.0
11:13:21,556226.0,0.0,0.0
11:13:21,556069.0,0.0,0.0
11:13:21,556384.0,0.0,0.0
11:13:21,556204.0,0.0,0.0
11:13:21,556176.0,0.0,0.0
11:13:21,556216.0,0.0,0.0
11:13:21,556122.0,0.0,0.0
11:13:21,556138.0,0.0,0.0
11:13:21,556159.0,0.0,0.0
11:13:21,555979.0,0.0,0.0
11:13:21,556249.0,0.0,0.0
11:13:21,556004.0,0.0,0.0
11:13:21,556184.0,0.0,0.0
11:13:21,556124.0,0.0,0.0
11:13:21,556012.0,0.0,0.0
11:13:21,556171.0,0.0,0.0
11:13:21,556018.0,0.0,0.0
11:13:21,556112.0,0.0,0.0
11:13:21,556019.0,0.0,0.0
11:13:21,556023.0,0.0,0.0
11:13:21,556118.0,0.0,0.0
11:13:21,556027.0,0.0,0.0
11:13:21,556041.0,0.0,0.0
11:13:21,556139.0,0.0,0.0
11:13:21,555945.0,0.0,0.0
11:13:21,556214.0,0.0,0.0
11:13:21,555881.0,0.0,0.0
11:13:21,556080.0,0.0,0.0
11:13:21,555938.0,0.0,0.0
11:13:21,556018.0,0.0,0.0
11:13:21,556061.0,0.0,0.0
11:13:21,555956.0,0.0,0.0
11:13:21,555994.0,0.0,0.0
11:13:21,556085.0,0.0,0.0
11:13:21,555898.0,0.0,0.0
11:13:21,556123.0,0.0,0.0
11:13:21,555891.0,0.0,0.0
11:13:21,556044.0,0.0,0.0
11:13:21,556068.0,0.0,0.0
11:13:21,555965.0,0.0,0.0
11:13:21,556131.0,0.0,0.0
11:13:21,555895.0,0.0,0.0
11:13:21,556030.0,0.0,0.0
11:13:21,555983.0,0.0,0.0
11:13:21,555975.0,0.0,0.0
11:13:21,556055.0,0.0,0.0
11:13:21,555951.0,0.0,0.0
11:13:21,555936.0,0.0,0.0
11:13:21,556006.0,0.0,0.0
11:13:21,555825.0,0.0,0.0
11:13:21,556095.0,0.0,0.0
11:13:21,555813.0,0.0,0.0
11:13:21,556041.0,0.0,0.0
11:13:21,555889.0,0.0,0.0
11:13:21,555949.0,0.0,0.0
11:13:21,555992.0,0.0,0.0
11:13:21,555901.0,0.0,0.0
11:13:21,555989.0,0.0,0.0
11:13:21,556028.0,0.0,0.0
11:13:21,555861.0,0.0,0.0
11:13:21,556070.0,0.0,0.0
11:13:21,555861.0,0.0,0.0
11:13:21,555969.0,0.0,0.0
11:13:21,555896.0,0.0,0.0
11:13:21,555825.0,0.0,0.0
11:13:21,555979.0,0.0,0.0
11:13:21,555764.0,0.0,0.0
11:13:21,555951.0,0.0,0.0
11:13:21,555843.0,0.0,0.0
11:13:21,555821.0,0.0,0.0
11:13:22,555904.0,0.0,0.0
11:13:22,555829.0,0.0,0.0
11:13:22,555809.0,0.0,0.0
11:13:22,555911.0,0.0,0.0
11:13:22,555741.0,0.0,0.0
11:13:22,556022.0,0.0,0.0
11:13:22,555724.0,0.0,0.0
11:13:22,555955.0,0.0,0.0
11:13:22,555802.0,0.0,0.0
11:13:22,555820.0,0.0,0.0
11:13:22,555867.0,0.0,0.0
11:13:22,555788.0,0.0,0.0
11:13:22,555807.0,0.0,0.0
11:13:22,555846.0,0.0,0.0
11:13:22,555687.0,0.0,0.0
11:13:22,555898.0,0.0,0.0
11:13:22,555649.0,0.0,0.0
11:13:22,555774.0,0.0,0.0
11:13:22,555808.0,0.0,0.0
11:13:22,555714.0,0.0,0.0
11:13:22,555863.0,0.0,0.0
11:13:22,555661.0,0.0,0.0
11:13:22,555825.0,0.0,0.0
11:13:22,555756.0,0.0,0.0
11:13:22,555742.0,0.0,0.0
11:13:22,555845.0,0.0,0.0
11:13:22,555798.0,0.0,0.0
11:13:22,555806.0,0.0,0.0
11:13:22,555904.0,0.0,0.0
11:13:22,555756.0,0.0,0.0
11:13:22,556056.0,0.0,0.0
11:13:22,555668.0,0.0,0.0
11:13:22,555688.0,0.0,0.0
11:13:22,555561.0,0.0,0.0
11:13:22,555634.0,0.0,0.0
11:13:22,555792.0,0.0,0.0
11:13:22,555763.0,0.0,0.0
11:13:22,555809.0,0.0,0.0
11:13:22,555821.0,0.0,0.0
11:13:22,555658.0,0.0,0.0
11:13:22,555848.0,0.0,0.0
11:13:22,555629.0,0.0,0.0
11:13:22,555780.0,0.0,0.0
11:13:22,555738.0,0.0,0.0
11:13:22,555651.0,0.0,0.0
11:13:22,555856.0,0.0,0.0
11:13:22,555685.0,0.0,0.0
11:13:22,555821.0,0.0,0.0
11:13:22,555729.0,0.0,0.0
11:13:22,555693.0,0.0,0.0
11:13:22,555774.0,0.0,0.0
11:13:22,555688.0,0.0,0.0
11:13:22,555711.0,0.0,0.0
11:13:22,555769.0,0.0,0.0
11:13:22,555526.0,0.0,0.0
11:13:22,555805.0,0.0,0.0
11:13:22,555542.0,0.0,0.0
11:13:22,555788.0,0.0,0.0
11:13:22,555658.0,0.0,0.0
11:13:22,555687.0,0.0,0.0
11:13:22,555744.0,0.0,0.0
11:13:22,555659.0,0.0,0.0
11:13:22,555695.0,0.0,0.0
11:13:22,555761.0,0.0,0.0
11:13:22,555630.0,0.0,0.0
11:13:22,555846.0,0.0,0.0
11:13:22,555622.0,0.0,0.0
11:13:22,555809.0,0.0,0.0
11:13:22,555775.0,0.0,0.0
11:13:22,555678.0,0.0,0.0
11:13:22,555863.0,0.0,0.0
11:13:22,555683.0,0.0,0.0
11:13:22,555859.0,0.0,0.0
11:13:22,555776.0,0.0,0.0
11:13:22,555764.0,0.0,0.0
11:13:22,555863.0,0.0,0.0
11:13:22,555799.0,0.0,0.0
11:13:22,555816.0,0.0,0.0
11:13:22,555891.0,0.0,0.0
11:13:22,555716.0,0.0,0.0
11:13:22,555982.0,0.0,0.0
11:13:22,555703.0,0.0,0.0
11:13:22,555946.0,0.0,0.0
11:13:22,555820.0,0.0,0.0
11:13:22,555873.0,0.0,0.0
11:13:22,555918.0,0.0,0.0
11:13:22,555823.0,0.0,0.0
11:13:22,555902.0,0.0,0.0
11:13:22,555938.0,0.0,0.0
11:13:22,555829.0,0.0,0.0
11:13:22,556033.0,0.0,0.0
11:13:22,555809.0,0.0,0.0
11:13:22,555946.0,0.0,0.0
11:13:22,555903.0,0.0,0.0
11:13:22,555826.0,0.0,0.0
11:13:22,556027.0,0.0,0.0
11:13:22,555823.0,0.0,0.0
11:13:22,555956.0,0.0,0.0
11:13:22,555860.0,0.0,0.0
11:13:22,555881.0,0.0,0.0
11:13:22,555978.0,0.0,0.0
11:13:22,555896.0,0.0,0.0
11:13:22,555919.0,0.0,0.0
11:13:22,556007.0,0.0,0.0
11:13:22,555833.0,0.0,0.0
11:13:22,556119.0,0.0,0.0
11:13:22,555836.0,0.0,0.0
11:13:22,556069.0,0.0,0.0
11:13:22,555909.0,0.0,0.0
11:13:22,556013.0,0.0,0.0
11:13:22,556062.0,0.0,0.0
11:13:22,555932.0,0.0,0.0
11:13:22,555967.0,0.0,0.0
11:13:22,556029.0,0.0,0.0
11:13:22,555927.0,0.0,0.0
11:13:22,556159.0,0.0,0.0
11:13:22,555932.0,0.0,0.0
11:13:22,556068.0,0.0,0.0
11:13:22,556061.0,0.0,0.0
11:13:22,556004.0,0.0,0.0
11:13:22,556219.0,0.0,0.0
11:13:22,555991.0,0.0,0.0
11:13:22,556133.0,0.0,0.0
11:13:22,556087.0,0.0,0.0
11:13:22,556064.0,0.0,0.0
11:13:23,556128.0,0.0,0.0
11:13:23,556074.0,0.0,0.0
11:13:23,556074.0,0.0,0.0
11:13:23,556151.0,0.0,0.0
11:13:23,555988.0,0.0,0.0
11:13:23,556261.0,0.0,0.0
11:13:23,555954.0,0.0,0.0
11:13:23,556196.0,0.0,0.0
11:13:23,556089.0,0.0,0.0
11:13:23,556165.0,0.0,0.0
11:13:23,556234.0,0.0,0.0
11:13:23,556146.0,0.0,0.0
11:13:23,556096.0,0.0,0.0
11:13:23,556034.0,0.0,0.0
11:13:23,555930.0,0.0,0.0
11:13:23,556198.0,0.0,0.0
11:13:23,556069.0,0.0,0.0
11:13:23,556283.0,0.0,0.0
11:13:23,556211.0,0.0,0.0
11:13:23,556128.0,0.0,0.0
11:13:23,556312.0,0.0,0.0
11:13:23,556072.0,0.0,0.0
11:13:23,556214.0,0.0,0.0
11:13:23,556142.0,0.0,0.0
11:13:23,556118.0,0.0,0.0
11:13:23,556206.0,0.0,0.0
11:13:23,556132.0,0.0,0.0
11:13:23,556169.0,0.0,0.0
11:13:23,556237.0,0.0,0.0
11:13:23,556060.0,0.0,0.0
11:13:23,556335.0,0.0,0.0
11:13:23,556038.0,0.0,0.0
11:13:23,556274.0,0.0,0.0
11:13:23,556107.0,0.0,0.0
11:13:23,556157.0,0.0,0.0
11:13:23,556234.0,0.0,0.0
11:13:23,556173.0,0.0,0.0
11:13:23,556189.0,0.0,0.0
11:13:23,556212.0,0.0,0.0
11:13:23,556110.0,0.0,0.0
11:13:23,556328.0,0.0,0.0
11:13:23,556122.0,0.0,0.0
11:13:23,556270.0,0.0,0.0
11:13:23,556239.0,0.0,0.0
11:13:23,556140.0,0.0,0.0
11:13:23,556320.0,0.0,0.0
11:13:23,556124.0,0.0,0.0
11:13:23,556288.0,0.0,0.0
11:13:23,556236.0,0.0,0.0
11:13:23,556239.0,0.0,0.0
11:13:23,556377.0,0.0,0.0
11:13:23,556293.0,0.0,0.0
11:13:23,556316.0,0.0,0.0
11:13:23,556403.0,0.0,0.0
11:13:23,556261.0,0.0,0.0
11:13:23,556556.0,0.0,0.0
11:13:23,556253.0,0.0,0.0
11:13:23,556511.0,0.0,0.0
11:13:23,556343.0,0.0,0.0
11:13:23,556408.0,0.0,0.0
11:13:23,556450.0,0.0,0.0
11:13:23,556374.0,0.0,0.0
11:13:23,556408.0,0.0,0.0
11:13:23,556452.0,0.0,0.0
11:13:23,556285.0,0.0,0.0
11:13:23,556496.0,0.0,0.0
11:13:23,556264.0,0.0,0.0
11:13:23,556438.0,0.0,0.0
11:13:23,556375.0,0.0,0.0
11:13:23,556295.0,0.0,0.0
11:13:23,556476.0,0.0,0.0
11:13:23,556311.0,0.0,0.0
11:13:23,556478.0,0.0,0.0
11:13:23,556335.0,0.0,0.0
11:13:23,556384.0,0.0,0.0
11:13:23,556489.0,0.0,0.0
11:13:23,556368.0,0.0,0.0
11:13:23,556407.0,0.0,0.0
11:13:23,556441.0,0.0,0.0
11:13:23,556279.0,0.0,0.0
11:13:23,556554.0,0.0,0.0
11:13:23,556235.0,0.0,0.0
11:13:23,556456.0,0.0,0.0
11:13:23,556301.0,0.0,0.0
11:13:23,556342.0,0.0,0.0
11:13:23,556410.0,0.0,0.0
11:13:23,556350.0,0.0,0.0
11:13:23,556408.0,0.0,0.0
11:13:23,556434.0,0.0,0.0
11:13:23,556301.0,0.0,0.0
11:13:23,556551.0,0.0,0.0
11:13:23,556340.0,0.0,0.0
11:13:23,556506.0,0.0,0.0
11:13:23,556433.0,0.0,0.0
11:13:23,556424.0,0.0,0.0
11:13:23,556584.0,0.0,0.0
11:13:23,556428.0,0.0,0.0
11:13:23,556543.0,0.0,0.0
11:13:23,556483.0,0.0,0.0
11:13:23,556456.0,0.0,0.0
11:13:23,556610.0,0.0,0.0
11:13:23,556559.0,0.0,0.0
11:13:23,556662.0,0.0,0.0
11:13:23,556650.0,0.0,0.0
11:13:23,556544.0,0.0,0.0
11:13:23,556818.0,0.0,0.0
11:13:23,556558.0,0.0,0.0
11:13:23,556711.0,0.0,0.0
11:13:23,556467.0,0.0,0.0
11:13:23,556525.0,0.0,0.0
11:13:23,556628.0,0.0,0.0
11:13:23,556604.0,0.0,0.0
11:13:23,556717.0,0.0,0.0
11:13:23,556794.0,0.0,0.0
11:13:23,556611.0,0.0,0.0
11:13:23,556810.0,0.0,0.0
11:13:23,556572.0,0.0,0.0
11:13:23,556700.0,0.0,0.0
11:13:23,556606.0,0.0,0.0
11:13:23,556616.0,0.0,0.0
11:13:23,556728.0,0.0,0.0
11:13:23,556543.0,0.0,0.0
11:13:23,556698.0,0.0,0.0
11:13:23,556618.0,0.0,0.0
11:13:23,556565.0,0.0,0.0
11:13:24,556663.0,0.0,0.0
11:13:24,556564.0,0.0,0.0
11:13:24,556649.0,0.0,0.0
11:13:24,556657.0,0.0,0.0
11:13:24,556514.0,0.0,0.0
11:13:24,556703.0,0.0,0.0
11:13:24,556413.0,0.0,0.0
11:13:24,556644.0,0.0,0.0
11:13:24,556487.0,0.0,0.0
11:13:24,556535.0,0.0,0.0
11:13:24,556601.0,0.0,0.0
11:13:24,556487.0,0.0,0.0
11:13:24,556543.0,0.0,0.0
11:13:24,556556.0,0.0,0.0
11:13:24,556388.0,0.0,0.0
11:13:24,556586.0,0.0,0.0
11:13:24,556319.0,0.0,0.0
11:13:24,556578.0,0.0,0.0
11:13:24,556462.0,0.0,0.0
11:13:24,556441.0,0.0,0.0
11:13:24,556566.0,0.0,0.0
11:13:24,556352.0,0.0,0.0
11:13:24,556514.0,0.0,0.0
11:13:24,556486.0,0.0,0.0
11:13:24,556491.0,0.0,0.0
11:13:24,556508.0,0.0,0.0
11:13:24,556433.0,0.0,0.0
11:13:24,556517.0,0.0,0.0
11:13:24,556572.0,0.0,0.0
11:13:24,556401.0,0.0,0.0
11:13:24,556626.0,0.0,0.0
11:13:24,556348.0,0.0,0.0
11:13:24,556584.0,0.0,0.0
11:13:24,556410.0,0.0,0.0
11:13:24,556466.0,0.0,0.0
11:13:24,556549.0,0.0,0.0
11:13:24,556403.0,0.0,0.0
11:13:24,556494.0,0.0,0.0
11:13:24,556472.0,0.0,0.0
11:13:24,556349.0,0.0,0.0
11:13:24,556538.0,0.0,0.0
11:13:24,556362.0,0.0,0.0
11:13:24,556529.0,0.0,0.0
11:13:24,556426.0,0.0,0.0
11:13:24,556393.0,0.0,0.0
11:13:24,556574.0,0.0,0.0
11:13:24,556357.0,0.0,0.0
11:13:24,556524.0,0.0,0.0
11:13:24,556429.0,0.0,0.0
11:13:24,556440.0,0.0,0.0
11:13:24,556525.0,0.0,0.0
11:13:24,556409.0,0.0,0.0
11:13:24,556454.0,0.0,0.0
11:13:24,556479.0,0.0,0.0
11:13:24,556341.0,0.0,0.0
11:13:24,556590.0,0.0,0.0
11:13:24,556267.0,0.0,0.0
11:13:24,556524.0,0.0,0.0
11:13:24,556343.0,0.0,0.0
11:13:24,556420.0,0.0,0.0
11:13:24,556480.0,0.0,0.0
11:13:24,556362.0,0.0,0.0
11:13:24,556471.0,0.0,0.0
11:13:24,556481.0,0.0,0.0
11:13:24,556359.0,0.0,0.0
11:13:24,556549.0,0.0,0.0
11:13:24,556334.0,0.0,0.0
11:13:24,556507.0,0.0,0.0
11:13:24,556436.0,0.0,0.0
11:13:24,556428.0,0.0,0.0
11:13:24,556584.0,0.0,0.0
11:13:24,556362.0,0.0,0.0
11:13:24,556416.0,0.0,0.0
11:13:24,556241.0,0.0,0.0
11:13:24,556289.0,0.0,0.0
11:13:24,556419.0,0.0,0.0
11:13:24,556456.0,0.0,0.0
11:13:24,556531.0,0.0,0.0
11:13:24,556536.0,0.0,0.0
11:13:24,556351.0,0.0,0.0
11:13:24,556587.0,0.0,0.0
11:13:24,556306.0,0.0,0.0
11:13:24,556574.0,0.0,0.0
11:13:24,556379.0,0.0,0.0
11:13:24,556422.0,0.0,0.0
11:13:24,556486.0,0.0,0.0
11:13:24,556373.0,0.0,0.0
11:13:24,556448.0,0.0,0.0
11:13:24,556506.0,0.0,0.0
11:13:24,556350.0,0.0,0.0
11:13:24,556518.0,0.0,0.0
11:13:24,556325.0,0.0,0.0
11:13:24,556473.0,0.0,0.0
11:13:24,556368.0,0.0,0.0
11:13:24,556324.0,0.0,0.0
11:13:24,556441.0,0.0,0.0
11:13:24,556234.0,0.0,0.0
11:13:24,556440.0,0.0,0.0
11:13:24,556307.0,0.0,0.0
11:13:24,556318.0,0.0,0.0
11:13:24,556398.0,0.0,0.0
11:13:24,556291.0,0.0,0.0
11:13:24,556290.0,0.0,0.0
11:13:24,556338.0,0.0,0.0
11:13:24,556194.0,0.0,0.0
11:13:24,556420.0,0.0,0.0
11:13:24,556132.0,0.0,0.0
11:13:24,556417.0,0.0,0.0
11:13:24,556210.0,0.0,0.0
11:13:24,556278.0,0.0,0.0
11:13:24,556339.0,0.0,0.0
11:13:24,556229.0,0.0,0.0
11:13:24,556281.0,0.0,0.0
11:13:24,556288.0,0.0,0.0
11:13:24,556164.0,0.0,0.0
11:13:24,556339.0,0.0,0.0
11:13:24,556101.0,0.0,0.0
11:13:24,556271.0,0.0,0.0
11:13:24,556217.0,0.0,0.0
11:13:24,556164.0,0.0,0.0
11:13:24,556311.0,0.0,0.0
11:13:24,556083.0,0.0,0.0
11:13:24,556310.0,0.0,0.0
11:13:24,556199.0,0.0,0.0
11:13:24,556241.0,0.0,0.0
11:13:25,556266.0,0.0,0.0
11:13:25,556174.0,0.0,0.0
11:13:25,556276.0,0.0,0.0
11:13:25,556280.0,0.0,0.0
11:13:25,556121.0,0.0,0.0
11:13:25,556370.0,0.0,0.0
11:13:25,556080.0,0.0,0.0
11:13:25,556302.0,0.0,0.0
11:13:25,556100.0,0.0,0.0
11:13:25,556155.0,0.0,0.0
11:13:25,556181.0,0.0,0.0
11:13:25,556079.0,0.0,0.0
11:13:25,556163.0,0.0,0.0
11:13:25,556154.0,0.0,0.0
11:13:25,556049.0,0.0,0.0
11:13:25,556232.0,0.0,0.0
11:13:25,556076.0,0.0,0.0
11:13:25,556227.0,0.0,0.0
11:13:25,556066.0,0.0,0.0
11:13:25,556013.0,0.0,0.0
11:13:25,556179.0,0.0,0.0
11:13:25,556009.0,0.0,0.0
11:13:25,556093.0,0.0,0.0
11:13:25,555967.0,0.0,0.0
11:13:25,556006.0,0.0,0.0
11:13:25,556057.0,0.0,0.0
11:13:25,555926.0,0.0,0.0
11:13:25,556016.0,0.0,0.0
11:13:25,556021.0,0.0,0.0
11:13:25,555883.0,0.0,0.0
11:13:25,556133.0,0.0,0.0
11:13:25,555818.0,0.0,0.0
11:13:25,556124.0,0.0,0.0
11:13:25,555999.0,0.0,0.0
11:13:25,556013.0,0.0,0.0
11:13:25,555926.0,0.0,0.0
11:13:25,555786.0,0.0,0.0
11:13:25,555860.0,0.0,0.0
11:13:25,555961.0,0.0,0.0
11:13:25,555942.0,0.0,0.0
11:13:25,556136.0,0.0,0.0
11:13:25,555848.0,0.0,0.0
11:13:25,556024.0,0.0,0.0
11:13:25,555863.0,0.0,0.0
11:13:25,555858.0,0.0,0.0
11:13:25,555936.0,0.0,0.0
11:13:25,555751.0,0.0,0.0
11:13:25,555892.0,0.0,0.0
11:13:25,555772.0,0.0,0.0
11:13:25,555786.0,0.0,0.0
11:13:25,555901.0,0.0,0.0
11:13:25,555782.0,0.0,0.0
11:13:25,555842.0,0.0,0.0
11:13:25,555854.0,0.0,0.0
11:13:25,555688.0,0.0,0.0
11:13:25,555909.0,0.0,0.0
11:13:25,555604.0,0.0,0.0
11:13:25,555868.0,0.0,0.0
11:13:25,555672.0,0.0,0.0
11:13:25,555702.0,0.0,0.0
11:13:25,555723.0,0.0,0.0
11:13:25,555611.0,0.0,0.0
11:13:25,555709.0,0.0,0.0
11:13:25,555705.0,0.0,0.0
11:13:25,555537.0,0.0,0.0
11:13:25,555697.0,0.0,0.0
11:13:25,555472.0,0.0,0.0
11:13:25,555665.0,0.0,0.0
11:13:25,555578.0,0.0,0.0
11:13:25,555559.0,0.0,0.0
11:13:25,555728.0,0.0,0.0
11:13:25,555555.0,0.0,0.0
11:13:25,555695.0,0.0,0.0
11:13:25,555635.0,0.0,0.0
11:13:25,555671.0,0.0,0.0
11:13:25,555765.0,0.0,0.0
11:13:25,555632.0,0.0,0.0
11:13:25,555683.0,0.0,0.0
11:13:25,555689.0,0.0,0.0
11:13:25,555586.0,0.0,0.0
11:13:25,555811.0,0.0,0.0
11:13:25,555504.0,0.0,0.0
11:13:25,555743.0,0.0,0.0
11:13:25,555583.0,0.0,0.0
11:13:25,555654.0,0.0,0.0
11:13:25,555717.0,0.0,0.0
11:13:25,555590.0,0.0,0.0
11:13:25,555614.0,0.0,0.0
11:13:25,555651.0,0.0,0.0
11:13:25,555570.0,0.0,0.0
11:13:25,555786.0,0.0,0.0
11:13:25,555523.0,0.0,0.0
11:13:25,555743.0,0.0,0.0
11:13:25,555614.0,0.0,0.0
11:13:25,555614.0,0.0,0.0
11:13:25,555700.0,0.0,0.0
11:13:25,555503.0,0.0,0.0
11:13:25,555670.0,0.0,0.0
11:13:25,555559.0,0.0,0.0
11:13:25,555589.0,0.0,0.0
11:13:25,555645.0,0.0,0.0
11:13:25,555510.0,0.0,0.0
11:13:25,555603.0,0.0,0.0
11:13:25,555604.0,0.0,0.0
11:13:25,555479.0,0.0,0.0
11:13:25,555688.0,0.0,0.0
11:13:25,555446.0,0.0,0.0
11:13:25,555685.0,0.0,0.0
11:13:25,555519.0,0.0,0.0
11:13:25,555525.0,0.0,0.0
11:13:25,555587.0,0.0,0.0
11:13:25,555517.0,0.0,0.0
11:13:25,555588.0,0.0,0.0
11:13:25,555558.0,0.0,0.0
11:13:25,555435.0,0.0,0.0
11:13:25,555610.0,0.0,0.0
11:13:25,555399.0,0.0,0.0
11:13:25,555609.0,0.0,0.0
11:13:25,555497.0,0.0,0.0
11:13:25,555494.0,0.0,0.0
11:13:25,555594.0,0.0,0.0
11:13:25,555386.0,0.0,0.0
11:13:25,555565.0,0.0,0.0
11:13:25,555476.0,0.0,0.0
11:13:25,555507.0,0.0,0.0
11:13:26,555639.0,0.0,0.0
11:13:26,555519.0,0.0,0.0
11:13:26,555479.0,0.0,0.0
11:13:26,555323.0,0.0,0.0
11:13:26,555218.0,0.0,0.0
11:13:26,555521.0,0.0,0.0
11:13:26,555375.0,0.0,0.0
11:13:26,555702.0,0.0,0.0
11:13:26,555469.0,0.0,0.0
11:13:26,555503.0,0.0,0.0
11:13:26,555506.0,0.0,0.0
11:13:26,555406.0,0.0,0.0
11:13:26,555466.0,0.0,0.0
11:13:26,555451.0,0.0,0.0
11:13:26,555306.0,0.0,0.0
11:13:26,555506.0,0.0,0.0
11:13:26,555268.0,0.0,0.0
11:13:26,555441.0,0.0,0.0
11:13:26,555346.0,0.0,0.0
11:13:26,555331.0,0.0,0.0
11:13:26,555508.0,0.0,0.0
11:13:26,555274.0,0.0,0.0
11:13:26,555464.0,0.0,0.0
11:13:26,555356.0,0.0,0.0
11:13:26,555364.0,0.0,0.0
11:13:26,555399.0,0.0,0.0
11:13:26,555306.0,0.0,0.0
11:13:26,555324.0,0.0,0.0
11:13:26,555386.0,0.0,0.0
11:13:26,555287.0,0.0,0.0
11:13:26,555454.0,0.0,0.0
11:13:26,555148.0,0.0,0.0
11:13:26,555432.0,0.0,0.0
11:13:26,555232.0,0.0,0.0
11:13:26,555266.0,0.0,0.0
11:13:26,555296.0,0.0,0.0
11:13:26,555202.0,0.0,0.0
11:13:26,555290.0,0.0,0.0
11:13:26,555296.0,0.0,0.0
11:13:26,555194.0,0.0,0.0
11:13:26,555377.0,0.0,0.0
11:13:26,555149.0,0.0,0.0
11:13:26,555356.0,0.0,0.0
11:13:26,555269.0,0.0,0.0
11:13:26,555207.0,0.0,0.0
11:13:26,555393.0,0.0,0.0
11:13:26,555191.0,0.0,0.0
11:13:26,555397.0,0.0,0.0
11:13:26,555259.0,0.0,0.0
11:13:26,555298.0,0.0,0.0
11:13:26,555343.0,0.0,0.0
11:13:26,555227.0,0.0,0.0
11:13:26,555282.0,0.0,0.0
11:13:26,555315.0,0.0,0.0
11:13:26,555151.0,0.0,0.0
11:13:26,555423.0,0.0,0.0
11:13:26,555158.0,0.0,0.0
11:13:26,555392.0,0.0,0.0
11:13:26,555234.0,0.0,0.0
11:13:26,555288.0,0.0,0.0
11:13:26,555333.0,0.0,0.0
11:13:26,555249.0,0.0,0.0
11:13:26,555323.0,0.0,0.0
11:13:26,555301.0,0.0,0.0
11:13:26,555207.0,0.0,0.0
11:13:26,555363.0,0.0,0.0
11:13:26,555143.0,0.0,0.0
11:13:26,555294.0,0.0,0.0
11:13:26,555209.0,0.0,0.0
11:13:26,555174.0,0.0,0.0
11:13:26,555328.0,0.0,0.0
11:13:26,555129.0,0.0,0.0
11:13:26,555308.0,0.0,0.0
11:13:26,555189.0,0.0,0.0
11:13:26,555205.0,0.0,0.0
11:13:26,555268.0,0.0,0.0
11:13:26,555160.0,0.0,0.0
11:13:26,555193.0,0.0,0.0
11:13:26,555215.0,0.0,0.0
11:13:26,555123.0,0.0,0.0
11:13:26,555373.0,0.0,0.0
11:13:26,555044.0,0.0,0.0
11:13:26,555336.0,0.0,0.0
11:13:26,555164.0,0.0,0.0
11:13:26,555231.0,0.0,0.0
11:13:26,555253.0,0.0,0.0
11:13:26,555132.0,0.0,0.0
11:13:26,555204.0,0.0,0.0
11:13:26,555204.0,0.0,0.0
11:13:26,555132.0,0.0,0.0
11:13:26,555284.0,0.0,0.0
11:13:26,555066.0,0.0,0.0
11:13:26,555231.0,0.0,0.0
11:13:26,555139.0,0.0,0.0
11:13:26,555066.0,0.0,0.0
11:13:26,555223.0,0.0,0.0
11:13:26,555043.0,0.0,0.0
11:13:26,555226.0,0.0,0.0
11:13:26,555091.0,0.0,0.0
11:13:26,555208.0,0.0,0.0
11:13:26,555279.0,0.0,0.0
11:13:26,555131.0,0.0,0.0
11:13:26,555018.0,0.0,0.0
11:13:26,554977.0,0.0,0.0
11:13:26,554836.0,0.0,0.0
11:13:26,555163.0,0.0,0.0
11:13:26,555019.0,0.0,0.0
11:13:26,555300.0,0.0,0.0
11:13:26,555057.0,0.0,0.0
11:13:26,555119.0,0.0,0.0
11:13:26,555113.0,0.0,0.0
11:13:26,555027.0,0.0,0.0
11:13:26,555083.0,0.0,0.0
11:13:26,555074.0,0.0,0.0
11:13:26,554985.0,0.0,0.0
11:13:26,555141.0,0.0,0.0
11:13:26,554910.0,0.0,0.0
11:13:26,555155.0,0.0,0.0
11:13:26,555043.0,0.0,0.0
11:13:26,554979.0,0.0,0.0
11:13:26,555164.0,0.0,0.0
11:13:26,554952.0,0.0,0.0
11:13:26,555176.0,0.0,0.0
11:13:26,555011.0,0.0,0.0
11:13:26,555045.0,0.0,0.0
11:13:27,555093.0,0.0,0.0
11:13:27,555007.0,0.0,0.0
11:13:27,555093.0,0.0,0.0
11:13:27,555124.0,0.0,0.0
11:13:27,554971.0,0.0,0.0
11:13:27,555183.0,0.0,0.0
11:13:27,554903.0,0.0,0.0
11:13:27,555146.0,0.0,0.0
11:13:27,554975.0,0.0,0.0
11:13:27,555037.0,0.0,0.0
11:13:27,555029.0,0.0,0.0
11:13:27,554976.0,0.0,0.0
11:13:27,555064.0,0.0,0.0
11:13:27,555011.0,0.0,0.0
11:13:27,555003.0,0.0,0.0
11:13:27,555168.0,0.0,0.0
11:13:27,554938.0,0.0,0.0
11:13:27,555108.0,0.0,0.0
11:13:27,555023.0,0.0,0.0
11:13:27,554981.0,0.0,0.0
11:13:27,555119.0,0.0,0.0
11:13:27,554897.0,0.0,0.0
11:13:27,555093.0,0.0,0.0
11:13:27,554945.0,0.0,0.0
11:13:27,554979.0,0.0,0.0
11:13:27,555023.0,0.0,0.0
11:13:27,554942.0,0.0,0.0
11:13:27,555013.0,0.0,0.0
11:13:27,555023.0,0.0,0.0
11:13:27,554889.0,0.0,0.0
11:13:27,555113.0,0.0,0.0
11:13:27,554883.0,0.0,0.0
11:13:27,555142.0,0.0,0.0
11:13:27,554937.0,0.0,0.0
11:13:27,554995.0,0.0,0.0
11:13:27,555021.0,0.0,0.0
11:13:27,554926.0,0.0,0.0
11:13:27,555017.0,0.0,0.0
11:13:27,554998.0,0.0,0.0
11:13:27,554889.0,0.0,0.0
11:13:27,555055.0,0.0,0.0
11:13:27,554841.0,0.0,0.0
11:13:27,554991.0,0.0,0.0
11:13:27,554923.0,0.0,0.0
11:13:27,554892.0,0.0,0.0
11:13:27,555043.0,0.0,0.0
11:13:27,554831.0,0.0,0.0
11:13:27,555049.0,0.0,0.0
11:13:27,554907.0,0.0,0.0
11:13:27,554958.0,0.0,0.0
11:13:27,555040.0,0.0,0.0
11:13:27,554924.0,0.0,0.0
11:13:27,554993.0,0.0,0.0
11:13:27,555004.0,0.0,0.0
11:13:27,554854.0,0.0,0.0
11:13:27,555071.0,0.0,0.0
11:13:27,554791.0,0.0,0.0
11:13:27,555044.0,0.0,0.0
11:13:27,554872.0,0.0,0.0
11:13:27,554943.0,0.0,0.0
11:13:27,554998.0,0.0,0.0
11:13:27,554881.0,0.0,0.0
11:13:27,554974.0,0.0,0.0
11:13:27,554960.0,0.0,0.0
11:13:27,554863.0,0.0,0.0
11:13:27,555068.0,0.0,0.0
11:13:27,554820.0,0.0,0.0
11:13:27,555023.0,0.0,0.0
11:13:27,554842.0,0.0,0.0
11:13:27,554902.0,0.0,0.0
11:13:27,555034.0,0.0,0.0
11:13:27,554893.0,0.0,0.0
11:13:27,554996.0,0.0,0.0
11:13:27,554834.0,0.0,0.0
11:13:27,554866.0,0.0,0.0
11:13:27,554987.0,0.0,0.0
11:13:27,554837.0,0.0,0.0
11:13:27,555029.0,0.0,0.0
11:13:27,554946.0,0.0,0.0
11:13:27,554868.0,0.0,0.0
11:13:27,555107.0,0.0,0.0
11:13:27,554898.0,0.0,0.0
11:13:27,554999.0,0.0,0.0
11:13:27,554675.0,0.0,0.0
11:13:27,554774.0,0.0,0.0
11:13:27,554892.0,0.0,0.0
11:13:27,554902.0,0.0,0.0
11:13:27,555045.0,0.0,0.0
11:13:27,554996.0,0.0,0.0
11:13:27,554928.0,0.0,0.0
11:13:27,555105.0,0.0,0.0
11:13:27,554819.0,0.0,0.0
11:13:27,554954.0,0.0,0.0
11:13:27,554855.0,0.0,0.0
11:13:27,554845.0,0.0,0.0
11:13:27,554906.0,0.0,0.0
11:13:27,554691.0,0.0,0.0
11:13:27,554881.0,0.0,0.0
11:13:27,554799.0,0.0,0.0
11:13:27,554746.0,0.0,0.0
11:13:27,554853.0,0.0,0.0
11:13:27,554726.0,0.0,0.0
11:13:27,554888.0,0.0,0.0
11:13:27,554809.0,0.0,0.0
11:13:27,554764.0,0.0,0.0
11:13:27,554955.0,0.0,0.0
11:13:27,554753.0,0.0,0.0
11:13:27,554997.0,0.0,0.0
11:13:27,554869.0,0.0,0.0
11:13:27,554931.0,0.0,0.0
11:13:27,555020.0,0.0,0.0
11:13:27,554836.0,0.0,0.0
11:13:27,554952.0,0.0,0.0
11:13:27,554901.0,0.0,0.0
11:13:27,554859.0,0.0,0.0
11:13:27,554959.0,0.0,0.0
11:13:27,554795.0,0.0,0.0
11:13:27,555036.0,0.0,0.0
11:13:27,554926.0,0.0,0.0
11:13:27,554901.0,0.0,0.0
11:13:27,555017.0,0.0,0.0
11:13:27,554884.0,0.0,0.0
11:13:27,555039.0,0.0,0.0
11:13:27,554979.0,0.0,0.0
11:13:27,554988.0,0.0,0.0
11:13:28,555097.0,0.0,0.0
11:13:28,554956.0,0.0,0.0
11:13:28,555111.0,0.0,0.0
11:13:28,555035.0,0.0,0.0
11:13:28,554996.0,0.0,0.0
11:13:28,555176.0,0.0,0.0
11:13:28,554916.0,0.0,0.0
11:13:28,555153.0,0.0,0.0
11:13:28,554964.0,0.0,0.0
11:13:28,555057.0,0.0,0.0
11:13:28,555091.0,0.0,0.0
11:13:28,555041.0,0.0,0.0
11:13:28,555133.0,0.0,0.0
11:13:28,555009.0,0.0,0.0
11:13:28,554912.0,0.0,0.0
11:13:28,555146.0,0.0,0.0
11:13:28,554892.0,0.0,0.0
11:13:28,555114.0,0.0,0.0
11:13:28,554928.0,0.0,0.0
11:13:28,555007.0,0.0,0.0
11:13:28,555096.0,0.0,0.0
11:13:28,554873.0,0.0,0.0
11:13:28,555083.0,0.0,0.0
11:13:28,554967.0,0.0,0.0
11:13:28,555019.0,0.0,0.0
11:13:28,555046.0,0.0,0.0
11:13:28,554959.0,0.0,0.0
11:13:28,555033.0,0.0,0.0
11:13:28,555058.0,0.0,0.0
11:13:28,554948.0,0.0,0.0
11:13:28,555187.0,0.0,0.0
11:13:28,554871.0,0.0,0.0
11:13:28,555185.0,0.0,0.0
11:13:28,555036.0,0.0,0.0
11:13:28,555144.0,0.0,0.0
11:13:28,555134.0,0.0,0.0
11:13:28,555064.0,0.0,0.0
11:13:28,555189.0,0.0,0.0
11:13:28,555185.0,0.0,0.0
11:13:28,555139.0,0.0,0.0
11:13:28,555323.0,0.0,0.0
11:13:28,555121.0,0.0,0.0
11:13:28,555289.0,0.0,0.0
11:13:28,555236.0,0.0,0.0
11:13:28,555248.0,0.0,0.0
11:13:28,555402.0,0.0,0.0
11:13:28,555141.0,0.0,0.0
11:13:28,555388.0,0.0,0.0
11:13:28,555228.0,0.0,0.0
11:13:28,555332.0,0.0,0.0
11:13:28,555359.0,0.0,0.0
11:13:28,555294.0,0.0,0.0
11:13:28,555342.0,0.0,0.0
11:13:28,555372.0,0.0,0.0
11:13:28,555274.0,0.0,0.0
11:13:28,555506.0,0.0,0.0
11:13:28,555246.0,0.0,0.0
11:13:28,555503.0,0.0,0.0
11:13:28,555309.0,0.0,0.0
11:13:28,555451.0,0.0,0.0
11:13:28,555474.0,0.0,0.0
11:13:28,555343.0,0.0,0.0
11:13:28,555311.0,0.0,0.0
11:13:28,555278.0,0.0,0.0
11:13:28,555279.0,0.0,0.0
11:13:28,555513.0,0.0,0.0
11:13:28,555363.0,0.0,0.0
11:13:28,555513.0,0.0,0.0
11:13:28,555394.0,0.0,0.0
11:13:28,555395.0,0.0,0.0
11:13:28,555571.0,0.0,0.0
11:13:28,555368.0,0.0,0.0
11:13:28,555569.0,0.0,0.0
11:13:28,555433.0,0.0,0.0
11:13:28,555559.0,0.0,0.0
11:13:28,555617.0,0.0,0.0
11:13:28,555499.0,0.0,0.0
11:13:28,555571.0,0.0,0.0
11:13:28,555556.0,0.0,0.0
11:13:28,555440.0,0.0,0.0
11:13:28,555646.0,0.0,0.0
11:13:28,555371.0,0.0,0.0
11:13:28,555658.0,0.0,0.0
11:13:28,555468.0,0.0,0.0
11:13:28,555592.0,0.0,0.0
11:13:28,555608.0,0.0,0.0
11:13:28,555503.0,0.0,0.0
11:13:28,555597.0,0.0,0.0
11:13:28,555517.0,0.0,0.0
11:13:28,555476.0,0.0,0.0
11:13:28,555619.0,0.0,0.0
11:13:28,555388.0,0.0,0.0
11:13:28,555561.0,0.0,0.0
11:13:28,555502.0,0.0,0.0
11:13:28,555473.0,0.0,0.0
11:13:28,555589.0,0.0,0.0
11:13:28,555378.0,0.0,0.0
11:13:28,555556.0,0.0,0.0
11:13:28,555489.0,0.0,0.0
11:13:28,555486.0,0.0,0.0
11:13:28,555525.0,0.0,0.0
11:13:28,555451.0,0.0,0.0
11:13:28,555598.0,0.0,0.0
11:13:28,555544.0,0.0,0.0
11:13:28,555459.0,0.0,0.0
11:13:28,555653.0,0.0,0.0
11:13:28,555362.0,0.0,0.0
11:13:28,555632.0,0.0,0.0
11:13:28,555473.0,0.0,0.0
11:13:28,555531.0,0.0,0.0
11:13:28,555568.0,0.0,0.0
11:13:28,555506.0,0.0,0.0
11:13:28,555608.0,0.0,0.0
11:13:28,555590.0,0.0,0.0
11:13:28,555533.0,0.0,0.0
11:13:28,555704.0,0.0,0.0
11:13:28,555481.0,0.0,0.0
11:13:28,555697.0,0.0,0.0
11:13:28,555546.0,0.0,0.0
11:13:28,555613.0,0.0,0.0
11:13:28,555684.0,0.0,0.0
11:13:28,555503.0,0.0,0.0
11:13:28,555664.0,0.0,0.0
11:13:28,555546.0,0.0,0.0
11:13:28,555575.0,0.0,0.0
11:13:29,555638.0,0.0,0.0
11:13:29,555506.0,0.0,0.0
11:13:29,555607.0,0.0,0.0
11:13:29,555619.0,0.0,0.0
11:13:29,555531.0,0.0,0.0
11:13:29,555686.0,0.0,0.0
11:13:29,555426.0,0.0,0.0
11:13:29,555666.0,0.0,0.0
11:13:29,555504.0,0.0,0.0
11:13:29,555599.0,0.0,0.0
11:13:29,555589.0,0.0,0.0
11:13:29,555519.0,0.0,0.0
11:13:29,555611.0,0.0,0.0
11:13:29,555598.0,0.0,0.0
11:13:29,555508.0,0.0,0.0
11:13:29,555644.0,0.0,0.0
11:13:29,555423.0,0.0,0.0
11:13:29,555658.0,0.0,0.0
11:13:29,555507.0,0.0,0.0
11:13:29,555475.0,0.0,0.0
11:13:29,555631.0,0.0,0.0
11:13:29,555427.0,0.0,0.0
11:13:29,555616.0,0.0,0.0
11:13:29,555486.0,0.0,0.0
11:13:29,555536.0,0.0,0.0
11:13:29,555589.0,0.0,0.0
11:13:29,555511.0,0.0,0.0
11:13:29,555679.0,0.0,0.0
11:13:29,555636.0,0.0,0.0
11:13:29,555572.0,0.0,0.0
11:13:29,555699.0,0.0,0.0
11:13:29,555367.0,0.0,0.0
11:13:29,555632.0,0.0,0.0
11:13:29,555453.0,0.0,0.0
11:13:29,555626.0,0.0,0.0
11:13:29,555725.0,0.0,0.0
11:13:29,555647.0,0.0,0.0
11:13:29,555700.0,0.0,0.0
11:13:29,555631.0,0.0,0.0
11:13:29,555523.0,0.0,0.0
11:13:29,555666.0,0.0,0.0
11:13:29,555471.0,0.0,0.0
11:13:29,555703.0,0.0,0.0
11:13:29,555586.0,0.0,0.0
11:13:29,555614.0,0.0,0.0
11:13:29,555654.0,0.0,0.0
11:13:29,555509.0,0.0,0.0
11:13:29,555712.0,0.0,0.0
11:13:29,555548.0,0.0,0.0
11:13:29,555585.0,0.0,0.0
11:13:29,555656.0,0.0,0.0
11:13:29,555481.0,0.0,0.0
11:13:29,555589.0,0.0,0.0
11:13:29,555553.0,0.0,0.0
11:13:29,555461.0,0.0,0.0
11:13:29,555655.0,0.0,0.0
11:13:29,555361.0,0.0,0.0
11:13:29,555603.0,0.0,0.0
11:13:29,555419.0,0.0,0.0
11:13:29,555477.0,0.0,0.0
11:13:29,555486.0,0.0,0.0
11:13:29,555394.0,0.0,0.0
11:13:29,555431.0,0.0,0.0
11:13:29,555413.0,0.0,0.0
11:13:29,555351.0,0.0,0.0
11:13:29,555581.0,0.0,0.0
11:13:29,555338.0,0.0,0.0
11:13:29,555569.0,0.0,0.0
11:13:29,555440.0,0.0,0.0
11:13:29,555418.0,0.0,0.0
11:13:29,555514.0,0.0,0.0
11:13:29,555369.0,0.0,0.0
11:13:29,555555.0,0.0,0.0
11:13:29,555386.0,0.0,0.0
11:13:29,555414.0,0.0,0.0
11:13:29,555453.0,0.0,0.0
11:13:29,555352.0,0.0,0.0
11:13:29,555504.0,0.0,0.0
11:13:29,555448.0,0.0,0.0
11:13:29,555338.0,0.0,0.0
11:13:29,555535.0,0.0,0.0
11:13:29,555317.0,0.0,0.0
11:13:29,555593.0,0.0,0.0
11:13:29,555372.0,0.0,0.0
11:13:29,555428.0,0.0,0.0
11:13:29,555398.0,0.0,0.0
11:13:29,555357.0,0.0,0.0
11:13:29,555464.0,0.0,0.0
11:13:29,555387.0,0.0,0.0
11:13:29,555334.0,0.0,0.0
11:13:29,555521.0,0.0,0.0
11:13:29,555275.0,0.0,0.0
11:13:29,555463.0,0.0,0.0
11:13:29,555303.0,0.0,0.0
11:13:29,555330.0,0.0,0.0
11:13:29,555451.0,0.0,0.0
11:13:29,555289.0,0.0,0.0
11:13:29,555439.0,0.0,0.0
11:13:29,555307.0,0.0,0.0
11:13:29,555348.0,0.0,0.0
11:13:29,555409.0,0.0,0.0
11:13:29,555297.0,0.0,0.0
11:13:29,555381.0,0.0,0.0
11:13:29,555347.0,0.0,0.0
11:13:29,555269.0,0.0,0.0
11:13:29,555453.0,0.0,0.0
11:13:29,555185.0,0.0,0.0
11:13:29,555443.0,0.0,0.0
11:13:29,555256.0,0.0,0.0
11:13:29,555373.0,0.0,0.0
11:13:29,555332.0,0.0,0.0
11:13:29,555258.0,0.0,0.0
11:13:29,555321.0,0.0,0.0
11:13:29,555295.0,0.0,0.0
11:13:29,555285.0,0.0,0.0
11:13:29,555402.0,0.0,0.0
11:13:29,555222.0,0.0,0.0
11:13:29,555459.0,0.0,0.0
11:13:29,555298.0,0.0,0.0
11:13:29,555244.0,0.0,0.0
11:13:29,555245.0,0.0,0.0
11:13:29,555078.0,0.0,0.0
11:13:29,555340.0,0.0,0.0
11:13:29,555298.0,0.0,0.0
11:13:29,555384.0,0.0,0.0
11:13:30,555420.0,0.0,0.0
11:13:30,555260.0,0.0,0.0
11:13:30,555311.0,0.0,0.0
11:13:30,555248.0,0.0,0.0
11:13:30,555165.0,0.0,0.0
11:13:30,555338.0,0.0,0.0
11:13:30,555078.0,0.0,0.0
11:13:30,555368.0,0.0,0.0
11:13:30,555161.0,0.0,0.0
11:13:30,555184.0,0.0,0.0
11:13:30,555230.0,0.0,0.0
11:13:30,555148.0,0.0,0.0
11:13:30,555209.0,0.0,0.0
11:13:30,555137.0,0.0,0.0
11:13:30,555072.0,0.0,0.0
11:13:30,555276.0,0.0,0.0
11:13:30,554995.0,0.0,0.0
11:13:30,555184.0,0.0,0.0
11:13:30,555061.0,0.0,0.0
11:13:30,555113.0,0.0,0.0
11:13:30,555185.0,0.0,0.0
11:13:30,554993.0,0.0,0.0
11:13:30,555141.0,0.0,0.0
11:13:30,555004.0,0.0,0.0
11:13:30,555030.0,0.0,0.0
11:13:30,555081.0,0.0,0.0
11:13:30,554934.0,0.0,0.0
11:13:30,554996.0,0.0,0.0
11:13:30,554958.0,0.0,0.0
11:13:30,554908.0,0.0,0.0
11:13:30,555078.0,0.0,0.0
11:13:30,554825.0,0.0,0.0
11:13:30,555066.0,0.0,0.0
11:13:30,554886.0,0.0,0.0
11:13:30,554987.0,0.0,0.0
11:13:30,554993.0,0.0,0.0
11:13:30,554911.0,0.0,0.0
11:13:30,555019.0,0.0,0.0
11:13:30,554926.0,0.0,0.0
11:13:30,554900.0,0.0,0.0
11:13:30,555069.0,0.0,0.0
11:13:30,554846.0,0.0,0.0
11:13:30,555077.0,0.0,0.0
11:13:30,554913.0,0.0,0.0
11:13:30,554938.0,0.0,0.0
11:13:30,555029.0,0.0,0.0
11:13:30,554862.0,0.0,0.0
11:13:30,555029.0,0.0,0.0
11:13:30,554896.0,0.0,0.0
11:13:30,554916.0,0.0,0.0
11:13:30,554962.0,0.0,0.0
11:13:30,554869.0,0.0,0.0
11:13:30,554970.0,0.0,0.0
11:13:30,554908.0,0.0,0.0
11:13:30,554852.0,0.0,0.0
11:13:30,555040.0,0.0,0.0
11:13:30,554808.0,0.0,0.0
11:13:30,555033.0,0.0,0.0
11:13:30,554820.0,0.0,0.0
11:13:30,554921.0,0.0,0.0
11:13:30,554965.0,0.0,0.0
11:13:30,554855.0,0.0,0.0
11:13:30,554958.0,0.0,0.0
11:13:30,554919.0,0.0,0.0
11:13:30,554816.0,0.0,0.0
11:13:30,554993.0,0.0,0.0
11:13:30,554792.0,0.0,0.0
11:13:30,554977.0,0.0,0.0
11:13:30,554801.0,0.0,0.0
11:13:30,554848.0,0.0,0.0
11:13:30,554916.0,0.0,0.0
11:13:30,554768.0,0.0,0.0
11:13:30,554971.0,0.0,0.0
11:13:30,554823.0,0.0,0.0
11:13:30,554871.0,0.0,0.0
11:13:30,554926.0,0.0,0.0
11:13:30,554793.0,0.0,0.0
11:13:30,554916.0,0.0,0.0
11:13:30,554852.0,0.0,0.0
11:13:30,554833.0,0.0,0.0
11:13:30,554990.0,0.0,0.0
11:13:30,554763.0,0.0,0.0
11:13:30,555015.0,0.0,0.0
11:13:30,554661.0,0.0,0.0
11:13:30,554673.0,0.0,0.0
11:13:30,554678.0,0.0,0.0
11:13:30,554612.0,0.0,0.0
11:13:30,554851.0,0.0,0.0
11:13:30,554840.0,0.0,0.0
11:13:30,554761.0,0.0,0.0
11:13:30,554848.0,0.0,0.0
11:13:30,554581.0,0.0,0.0
11:13:30,554751.0,0.0,0.0
11:13:30,554612.0,0.0,0.0
11:13:30,554686.0,0.0,0.0
11:13:30,554786.0,0.0,0.0
11:13:30,554627.0,0.0,0.0
11:13:30,554784.0,0.0,0.0
11:13:30,554617.0,0.0,0.0
11:13:30,554623.0,0.0,0.0
11:13:30,554693.0,0.0,0.0
11:13:30,554544.0,0.0,0.0
11:13:30,554666.0,0.0,0.0
11:13:30,554579.0,0.0,0.0
11:13:30,554478.0,0.0,0.0
11:13:30,554659.0,0.0,0.0
11:13:30,554446.0,0.0,0.0
11:13:30,554716.0,0.0,0.0
11:13:30,554494.0,0.0,0.0
11:13:30,554562.0,0.0,0.0
11:13:30,554573.0,0.0,0.0
11:13:30,554491.0,0.0,0.0
11:13:30,554588.0,0.0,0.0
11:13:30,554533.0,0.0,0.0
11:13:30,554488.0,0.0,0.0
11:13:30,554624.0,0.0,0.0
11:13:30,554398.0,0.0,0.0
11:13:30,554627.0,0.0,0.0
11:13:30,554495.0,0.0,0.0
11:13:30,554533.0,0.0,0.0
11:13:30,554596.0,0.0,0.0
11:13:30,554413.0,0.0,0.0
11:13:30,554598.0,0.0,0.0
11:13:30,554494.0,0.0,0.0
11:13:30,554536.0,0.0,0.0
11:13:31,554609.0,0.0,0.0
11:13:31,554474.0,0.0,0.0
11:13:31,554573.0,0.0,0.0
11:13:31,554508.0,0.0,0.0
11:13:31,554503.0,0.0,0.0
11:13:31,554664.0,0.0,0.0
11:13:31,554404.0,0.0,0.0
11:13:31,554693.0,0.0,0.0
11:13:31,554518.0,0.0,0.0
11:13:31,554579.0,0.0,0.0
11:13:31,554567.0,0.0,0.0
11:13:31,554539.0,0.0,0.0
11:13:31,554648.0,0.0,0.0
11:13:31,554591.0,0.0,0.0
11:13:31,554550.0,0.0,0.0
11:13:31,554688.0,0.0,0.0
11:13:31,554481.0,0.0,0.0
11:13:31,554678.0,0.0,0.0
11:13:31,554481.0,0.0,0.0
11:13:31,554559.0,0.0,0.0
11:13:31,554607.0,0.0,0.0
11:13:31,554463.0,0.0,0.0
11:13:31,554653.0,0.0,0.0
11:13:31,554501.0,0.0,0.0
11:13:31,554519.0,0.0,0.0
11:13:31,554531.0,0.0,0.0
11:13:31,554416.0,0.0,0.0
11:13:31,554531.0,0.0,0.0
11:13:31,554453.0,0.0,0.0
11:13:31,554438.0,0.0,0.0
11:13:31,554644.0,0.0,0.0
11:13:31,554396.0,0.0,0.0
11:13:31,554604.0,0.0,0.0
11:13:31,554400.0,0.0,0.0
11:13:31,554510.0,0.0,0.0
11:13:31,554484.0,0.0,0.0
11:13:31,554403.0,0.0,0.0
11:13:31,554483.0,0.0,0.0
11:13:31,554437.0,0.0,0.0
11:13:31,554408.0,0.0,0.0
11:13:31,554546.0,0.0,0.0
11:13:31,554356.0,0.0,0.0
11:13:31,554603.0,0.0,0.0
11:13:31,554411.0,0.0,0.0
11:13:31,554498.0,0.0,0.0
11:13:31,554619.0,0.0,0.0
11:13:31,554488.0,0.0,0.0
11:13:31,554538.0,0.0,0.0
11:13:31,554198.0,0.0,0.0
11:13:31,554314.0,0.0,0.0
11:13:31,554424.0,0.0,0.0
11:13:31,554430.0,0.0,0.0
11:13:31,554594.0,0.0,0.0
11:13:31,554499.0,0.0,0.0
11:13:31,554406.0,0.0,0.0
11:13:31,554578.0,0.0,0.0
11:13:31,554288.0,0.0,0.0
11:13:31,554532.0,0.0,0.0
11:13:31,554313.0,0.0,0.0
11:13:31,554389.0,0.0,0.0
11:13:31,554371.0,0.0,0.0
11:13:31,554325.0,0.0,0.0
11:13:31,554439.0,0.0,0.0
11:13:31,554357.0,0.0,0.0
11:13:31,554308.0,0.0,0.0
11:13:31,554478.0,0.0,0.0
11:13:31,554243.0,0.0,0.0
11:13:31,554429.0,0.0,0.0
11:13:31,554301.0,0.0,0.0
11:13:31,554323.0,0.0,0.0
11:13:31,554347.0,0.0,0.0
11:13:31,554211.0,0.0,0.0
11:13:31,554403.0,0.0,0.0
11:13:31,554204.0,0.0,0.0
11:13:31,554279.0,0.0,0.0
11:13:31,554303.0,0.0,0.0
11:13:31,554194.0,0.0,0.0
11:13:31,554303.0,0.0,0.0
11:13:31,554193.0,0.0,0.0
11:13:31,554138.0,0.0,0.0
11:13:31,554328.0,0.0,0.0
11:13:31,554099.0,0.0,0.0
11:13:31,554342.0,0.0,0.0
11:13:31,554096.0,0.0,0.0
11:13:31,554210.0,0.0,0.0
11:13:31,554203.0,0.0,0.0
11:13:31,554135.0,0.0,0.0
11:13:31,554274.0,0.0,0.0
11:13:31,554199.0,0.0,0.0
11:13:31,554185.0,0.0,0.0
11:13:31,554349.0,0.0,0.0
11:13:31,554092.0,0.0,0.0
11:13:31,554312.0,0.0,0.0
11:13:31,554137.0,0.0,0.0
11:13:31,554177.0,0.0,0.0
11:13:31,554293.0,0.0,0.0
11:13:31,554125.0,0.0,0.0
11:13:31,554265.0,0.0,0.0
11:13:31,554066.0,0.0,0.0
11:13:31,554125.0,0.0,0.0
11:13:31,554197.0,0.0,0.0
11:13:31,554090.0,0.0,0.0
11:13:31,554174.0,0.0,0.0
11:13:31,554109.0,0.0,0.0
11:13:31,554048.0,0.0,0.0
11:13:31,554216.0,0.0,0.0
11:13:31,553971.0,0.0,0.0
11:13:31,554243.0,0.0,0.0
11:13:31,554011.0,0.0,0.0
11:13:31,554139.0,0.0,0.0
11:13:31,554115.0,0.0,0.0
11:13:31,554036.0,0.0,0.0
11:13:31,554148.0,0.0,0.0
11:13:31,554093.0,0.0,0.0
11:13:31,554057.0,0.0,0.0
11:13:31,554124.0,0.0,0.0
11:13:31,553904.0,0.0,0.0
11:13:31,554155.0,0.0,0.0
11:13:31,553979.0,0.0,0.0
11:13:31,554048.0,0.0,0.0
11:13:31,554140.0,0.0,0.0
11:13:31,553973.0,0.0,0.0
11:13:31,554134.0,0.0,0.0
11:13:31,553984.0,0.0,0.0
11:13:31,554065.0,0.0,0.0
11:13:32,554100.0,0.0,0.0
11:13:32,553950.0,0.0,0.0
11:13:32,554071.0,0.0,0.0
11:13:32,553991.0,0.0,0.0
11:13:32,553923.0,0.0,0.0
11:13:32,554069.0,0.0,0.0
11:13:32,553839.0,0.0,0.0
11:13:32,554078.0,0.0,0.0
11:13:32,553841.0,0.0,0.0
11:13:32,554003.0,0.0,0.0
11:13:32,553997.0,0.0,0.0
11:13:32,553997.0,0.0,0.0
11:13:32,554111.0,0.0,0.0
11:13:32,553976.0,0.0,0.0
11:13:32,553741.0,0.0,0.0
11:13:32,553854.0,0.0,0.0
11:13:32,553683.0,0.0,0.0
11:13:32,554053.0,0.0,0.0
11:13:32,553973.0,0.0,0.0
11:13:32,554051.0,0.0,0.0
11:13:32,554030.0,0.0,0.0
11:13:32,553851.0,0.0,0.0
11:13:32,553993.0,0.0,0.0
11:13:32,553863.0,0.0,0.0
11:13:32,553917.0,0.0,0.0
11:13:32,553927.0,0.0,0.0
11:13:32,553760.0,0.0,0.0
11:13:32,553889.0,0.0,0.0
11:13:32,553803.0,0.0,0.0
11:13:32,553790.0,0.0,0.0
11:13:32,553925.0,0.0,0.0
11:13:32,553667.0,0.0,0.0
11:13:32,553884.0,0.0,0.0
11:13:32,553709.0,0.0,0.0
11:13:32,553816.0,0.0,0.0
11:13:32,553816.0,0.0,0.0
11:13:32,553723.0,0.0,0.0
11:13:32,553807.0,0.0,0.0
11:13:32,553780.0,0.0,0.0
11:13:32,553758.0,0.0,0.0
11:13:32,553854.0,0.0,0.0
11:13:32,553620.0,0.0,0.0
11:13:32,553803.0,0.0,0.0
11:13:32,553616.0,0.0,0.0
11:13:32,553690.0,0.0,0.0
11:13:32,553759.0,0.0,0.0
11:13:32,553591.0,0.0,0.0
11:13:32,553741.0,0.0,0.0
11:13:32,553603.0,0.0,0.0
11:13:32,553614.0,0.0,0.0
11:13:32,553691.0,0.0,0.0
11:13:32,553591.0,0.0,0.0
11:13:32,553753.0,0.0,0.0
11:13:32,553671.0,0.0,0.0
11:13:32,553651.0,0.0,0.0
11:13:32,553752.0,0.0,0.0
11:13:32,553576.0,0.0,0.0
11:13:32,553823.0,0.0,0.0
11:13:32,553593.0,0.0,0.0
11:13:32,553671.0,0.0,0.0
11:13:32,553725.0,0.0,0.0
11:13:32,553631.0,0.0,0.0
11:13:32,553724.0,0.0,0.0
11:13:32,553603.0,0.0,0.0
11:13:32,553610.0,0.0,0.0
11:13:32,553721.0,0.0,0.0
11:13:32,553505.0,0.0,0.0
11:13:32,553714.0,0.0,0.0
11:13:32,553578.0,0.0,0.0
11:13:32,553651.0,0.0,0.0
11:13:32,553701.0,0.0,0.0
11:13:32,553532.0,0.0,0.0
11:13:32,553702.0,0.0,0.0
11:13:32,553545.0,0.0,0.0
11:13:32,553613.0,0.0,0.0
11:13:32,553725.0,0.0,0.0
11:13:32,553590.0,0.0,0.0
11:13:32,553727.0,0.0,0.0
11:13:32,553640.0,0.0,0.0
11:13:32,553629.0,0.0,0.0
11:13:32,553741.0,0.0,0.0
11:13:32,553515.0,0.0,0.0
11:13:32,553763.0,0.0,0.0
11:13:32,553591.0,0.0,0.0
11:13:32,553685.0,0.0,0.0
11:13:32,553704.0,0.0,0.0
11:13:32,553619.0,0.0,0.0
11:13:32,553731.0,0.0,0.0
11:13:32,553649.0,0.0,0.0
11:13:32,553636.0,0.0,0.0
11:13:32,553739.0,0.0,0.0
11:13:32,553564.0,0.0,0.0
11:13:32,553823.0,0.0,0.0
11:13:32,553644.0,0.0,0.0
11:13:32,553715.0,0.0,0.0
11:13:32,553748.0,0.0,0.0
11:13:32,553597.0,0.0,0.0
11:13:32,553745.0,0.0,0.0
11:13:32,553668.0,0.0,0.0
11:13:32,553793.0,0.0,0.0
11:13:32,553710.0,0.0,0.0
11:13:32,553641.0,0.0,0.0
11:13:32,553768.0,0.0,0.0
11:13:32,553793.0,0.0,0.0
11:13:32,553766.0,0.0,0.0
11:13:32,553997.0,0.0,0.0
11:13:32,553699.0,0.0,0.0
11:13:32,553774.0,0.0,0.0
11:13:32,553443.0,0.0,0.0
11:13:32,553639.0,0.0,0.0
11:13:32,553696.0,0.0,0.0
11:13:32,553776.0,0.0,0.0
11:13:32,553960.0,0.0,0.0
11:13:32,553812.0,0.0,0.0
11:13:32,553818.0,0.0,0.0
11:13:32,553914.0,0.0,0.0
11:13:32,553724.0,0.0,0.0
11:13:32,553916.0,0.0,0.0
11:13:32,553761.0,0.0,0.0
11:13:32,553778.0,0.0,0.0
11:13:32,553891.0,0.0,0.0
11:13:32,553730.0,0.0,0.0
11:13:32,553964.0,0.0,0.0
11:13:32,553749.0,0.0,0.0
11:13:32,553894.0,0.0,0.0
11:13:33,553872.0,0.0,0.0
11:13:33,553843.0,0.0,0.0
11:13:33,553924.0,0.0,0.0
11:13:33,553890.0,0.0,0.0
11:13:33,553804.0,0.0,0.0
11:13:33,553981.0,0.0,0.0
11:13:33,553681.0,0.0,0.0
11:13:33,554012.0,0.0,0.0
11:13:33,553754.0,0.0,0.0
11:13:33,553878.0,0.0,0.0
11:13:33,553859.0,0.0,0.0
11:13:33,553759.0,0.0,0.0
11:13:33,553859.0,0.0,0.0
11:13:33,553775.0,0.0,0.0
11:13:33,553779.0,0.0,0.0
11:13:33,553907.0,0.0,0.0
11:13:33,553734.0,0.0,0.0
11:13:33,553893.0,0.0,0.0
11:13:33,553771.0,0.0,0.0
11:13:33,553826.0,0.0,0.0
11:13:33,553953.0,0.0,0.0
11:13:33,553766.0,0.0,0.0
11:13:33,554008.0,0.0,0.0
11:13:33,553806.0,0.0,0.0
11:13:33,553952.0,0.0,0.0
11:13:33,553956.0,0.0,0.0
11:13:33,553896.0,0.0,0.0
11:13:33,553919.0,0.0,0.0
11:13:33,553939.0,0.0,0.0
11:13:33,553911.0,0.0,0.0
11:13:33,554058.0,0.0,0.0
11:13:33,553786.0,0.0,0.0
11:13:33,554082.0,0.0,0.0
11:13:33,553881.0,0.0,0.0
11:13:33,554005.0,0.0,0.0
11:13:33,553991.0,0.0,0.0
11:13:33,553915.0,0.0,0.0
11:13:33,554004.0,0.0,0.0
11:13:33,553958.0,0.0,0.0
11:13:33,553953.0,0.0,0.0
11:13:33,554015.0,0.0,0.0
11:13:33,553872.0,0.0,0.0
11:13:33,554061.0,0.0,0.0
11:13:33,553949.0,0.0,0.0
11:13:33,553955.0,0.0,0.0
11:13:33,554067.0,0.0,0.0
11:13:33,553836.0,0.0,0.0
11:13:33,554075.0,0.0,0.0
11:13:33,553896.0,0.0,0.0
11:13:33,553999.0,0.0,0.0
11:13:33,553986.0,0.0,0.0
11:13:33,553936.0,0.0,0.0
11:13:33,554011.0,0.0,0.0
11:13:33,553977.0,0.0,0.0
11:13:33,553919.0,0.0,0.0
11:13:33,554129.0,0.0,0.0
11:13:33,553863.0,0.0,0.0
11:13:33,554151.0,0.0,0.0
11:13:33,553918.0,0.0,0.0
11:13:33,554106.0,0.0,0.0
11:13:33,554078.0,0.0,0.0
11:13:33,554017.0,0.0,0.0
11:13:33,554116.0,0.0,0.0
11:13:33,553999.0,0.0,0.0
11:13:33,554042.0,0.0,0.0
11:13:33,554143.0,0.0,0.0
11:13:33,553996.0,0.0,0.0
11:13:33,554207.0,0.0,0.0
11:13:33,554061.0,0.0,0.0
11:13:33,554111.0,0.0,0.0
11:13:33,554195.0,0.0,0.0
11:13:33,554023.0,0.0,0.0
11:13:33,554286.0,0.0,0.0
11:13:33,553966.0,0.0,0.0
11:13:33,554025.0,0.0,0.0
11:13:33,554009.0,0.0,0.0
11:13:33,554013.0,0.0,0.0
11:13:33,554210.0,0.0,0.0
11:13:33,554194.0,0.0,0.0
11:13:33,554130.0,0.0,0.0
11:13:33,554313.0,0.0,0.0
11:13:33,554038.0,0.0,0.0
11:13:33,554316.0,0.0,0.0
11:13:33,554027.0,0.0,0.0
11:13:33,554154.0,0.0,0.0
11:13:33,554172.0,0.0,0.0
11:13:33,554111.0,0.0,0.0
11:13:33,554261.0,0.0,0.0
11:13:33,554173.0,0.0,0.0
11:13:33,554192.0,0.0,0.0
11:13:33,554273.0,0.0,0.0
11:13:33,554066.0,0.0,0.0
11:13:33,554293.0,0.0,0.0
11:13:33,554145.0,0.0,0.0
11:13:33,554124.0,0.0,0.0
11:13:33,554231.0,0.0,0.0
11:13:33,554028.0,0.0,0.0
11:13:33,554306.0,0.0,0.0
11:13:33,554106.0,0.0,0.0
11:13:33,554240.0,0.0,0.0
11:13:33,554193.0,0.0,0.0
11:13:33,554138.0,0.0,0.0
11:13:33,554216.0,0.0,0.0
11:13:33,554213.0,0.0,0.0
11:13:33,554144.0,0.0,0.0
11:13:33,554324.0,0.0,0.0
11:13:33,554051.0,0.0,0.0
11:13:33,554286.0,0.0,0.0
11:13:33,554077.0,0.0,0.0
11:13:33,554251.0,0.0,0.0
11:13:33,554260.0,0.0,0.0
11:13:33,554160.0,0.0,0.0
11:13:33,554251.0,0.0,0.0
11:13:33,554210.0,0.0,0.0
11:13:33,554221.0,0.0,0.0
11:13:33,554344.0,0.0,0.0
11:13:33,554180.0,0.0,0.0
11:13:33,554336.0,0.0,0.0
11:13:33,554196.0,0.0,0.0
11:13:33,554268.0,0.0,0.0
11:13:33,554398.0,0.0,0.0
11:13:33,554207.0,0.0,0.0
11:13:33,554438.0,0.0,0.0
11:13:33,554215.0,0.0,0.0
11:13:33,554383.0,0.0,0.0
11:13:34,554342.0,0.0,0.0
11:13:34,554287.0,0.0,0.0
11:13:34,554351.0,0.0,0.0
11:13:34,554304.0,0.0,0.0
11:13:34,554279.0,0.0,0.0
11:13:34,554446.0,0.0,0.0
11:13:34,554191.0,0.0,0.0
11:13:34,554477.0,0.0,0.0
11:13:34,554271.0,0.0,0.0
11:13:34,554406.0,0.0,0.0
11:13:34,554318.0,0.0,0.0
11:13:34,554260.0,0.0,0.0
11:13:34,554444.0,0.0,0.0
11:13:34,554354.0,0.0,0.0
11:13:34,554366.0,0.0,0.0
11:13:34,554463.0,0.0,0.0
11:13:34,554304.0,0.0,0.0
11:13:34,554498.0,0.0,0.0
11:13:34,554325.0,0.0,0.0
11:13:34,554370.0,0.0,0.0
11:13:34,554466.0,0.0,0.0
11:13:34,554253.0,0.0,0.0
11:13:34,554498.0,0.0,0.0
11:13:34,554256.0,0.0,0.0
11:13:34,554413.0,0.0,0.0
11:13:34,554415.0,0.0,0.0
11:13:34,554375.0,0.0,0.0
11:13:34,554467.0,0.0,0.0
11:13:34,554392.0,0.0,0.0
11:13:34,554352.0,0.0,0.0
11:13:34,554554.0,0.0,0.0
11:13:34,554328.0,0.0,0.0
11:13:34,554632.0,0.0,0.0
11:13:34,554345.0,0.0,0.0
11:13:34,554361.0,0.0,0.0
11:13:34,554305.0,0.0,0.0
11:13:34,554289.0,0.0,0.0
11:13:34,554463.0,0.0,0.0
11:13:34,554403.0,0.0,0.0
11:13:34,554438.0,0.0,0.0
11:13:34,554464.0,0.0,0.0
11:13:34,554258.0,0.0,0.0
11:13:34,554479.0,0.0,0.0
11:13:34,554299.0,0.0,0.0
11:13:34,554334.0,0.0,0.0
11:13:34,554399.0,0.0,0.0
11:13:34,554230.0,0.0,0.0
11:13:34,554500.0,0.0,0.0
11:13:34,554276.0,0.0,0.0
11:13:34,554397.0,0.0,0.0
11:13:34,554401.0,0.0,0.0
11:13:34,554362.0,0.0,0.0
11:13:34,554436.0,0.0,0.0
11:13:34,554396.0,0.0,0.0
11:13:34,554328.0,0.0,0.0
11:13:34,554483.0,0.0,0.0
11:13:34,554202.0,0.0,0.0
11:13:34,554479.0,0.0,0.0
11:13:34,554242.0,0.0,0.0
11:13:34,554410.0,0.0,0.0
11:13:34,554388.0,0.0,0.0
11:13:34,554318.0,0.0,0.0
11:13:34,554436.0,0.0,0.0
11:13:34,554358.0,0.0,0.0
11:13:34,554381.0,0.0,0.0
11:13:34,554480.0,0.0,0.0
11:13:34,554314.0,0.0,0.0
11:13:34,554521.0,0.0,0.0
11:13:34,554391.0,0.0,0.0
11:13:34,554434.0,0.0,0.0
11:13:34,554500.0,0.0,0.0
11:13:34,554365.0,0.0,0.0
11:13:34,554669.0,0.0,0.0
11:13:34,554411.0,0.0,0.0
11:13:34,554561.0,0.0,0.0
11:13:34,554525.0,0.0,0.0
11:13:34,554488.0,0.0,0.0
11:13:34,554593.0,0.0,0.0
11:13:34,554551.0,0.0,0.0
11:13:34,554496.0,0.0,0.0
11:13:34,554662.0,0.0,0.0
11:13:34,554428.0,0.0,0.0
11:13:34,554724.0,0.0,0.0
11:13:34,554478.0,0.0,0.0
11:13:34,554635.0,0.0,0.0
11:13:34,554588.0,0.0,0.0
11:13:34,554523.0,0.0,0.0
11:13:34,554672.0,0.0,0.0
11:13:34,554587.0,0.0,0.0
11:13:34,554636.0,0.0,0.0
11:13:34,554695.0,0.0,0.0
11:13:34,554542.0,0.0,0.0
11:13:34,554717.0,0.0,0.0
11:13:34,554562.0,0.0,0.0
11:13:34,554607.0,0.0,0.0
11:13:34,554656.0,0.0,0.0
11:13:34,554468.0,0.0,0.0
11:13:34,554704.0,0.0,0.0
11:13:34,554510.0,0.0,0.0
11:13:34,554654.0,0.0,0.0
11:13:34,554568.0,0.0,0.0
11:13:34,554504.0,0.0,0.0
11:13:34,554592.0,0.0,0.0
11:13:34,554592.0,0.0,0.0
11:13:34,554568.0,0.0,0.0
11:13:34,554678.0,0.0,0.0
11:13:34,554429.0,0.0,0.0
11:13:34,554690.0,0.0,0.0
11:13:34,554459.0,0.0,0.0
11:13:34,554661.0,0.0,0.0
11:13:34,554601.0,0.0,0.0
11:13:34,554577.0,0.0,0.0
11:13:34,554692.0,0.0,0.0
11:13:34,554551.0,0.0,0.0
11:13:34,554435.0,0.0,0.0
11:13:34,554481.0,0.0,0.0
11:13:34,554343.0,0.0,0.0
11:13:34,554571.0,0.0,0.0
11:13:34,554479.0,0.0,0.0
11:13:34,554556.0,0.0,0.0
11:13:34,554659.0,0.0,0.0
11:13:34,554458.0,0.0,0.0
11:13:34,554686.0,0.0,0.0
11:13:34,554414.0,0.0,0.0
11:13:34,554540.0,0.0,0.0
11:13:35,554508.0,0.0,0.0
11:13:35,554458.0,0.0,0.0
11:13:35,554522.0,0.0,0.0
11:13:35,554504.0,0.0,0.0
11:13:35,554480.0,0.0,0.0
11:13:35,554618.0,0.0,0.0
11:13:35,554353.0,0.0,0.0
11:13:35,554651.0,0.0,0.0
11:13:35,554361.0,0.0,0.0
11:13:35,554517.0,0.0,0.0
11:13:35,554431.0,0.0,0.0
11:13:35,554330.0,0.0,0.0
11:13:35,554482.0,0.0,0.0
11:13:35,554380.0,0.0,0.0
11:13:35,554398.0,0.0,0.0
11:13:35,554449.0,0.0,0.0
11:13:35,554273.0,0.0,0.0
11:13:35,554458.0,0.0,0.0
11:13:35,554320.0,0.0,0.0
11:13:35,554361.0,0.0,0.0
11:13:35,554414.0,0.0,0.0
11:13:35,554252.0,0.0,0.0
11:13:35,554498.0,0.0,0.0
11:13:35,554241.0,0.0,0.0
11:13:35,554412.0,0.0,0.0
11:13:35,554366.0,0.0,0.0
11:13:35,554344.0,0.0,0.0
11:13:35,554425.0,0.0,0.0
11:13:35,554373.0,0.0,0.0
11:13:35,554311.0,0.0,0.0
11:13:35,554461.0,0.0,0.0
11:13:35,554214.0,0.0,0.0
11:13:35,554471.0,0.0,0.0
11:13:35,554228.0,0.0,0.0
11:13:35,554404.0,0.0,0.0
11:13:35,554350.0,0.0,0.0
11:13:35,554338.0,0.0,0.0
11:13:35,554405.0,0.0,0.0
11:13:35,554282.0,0.0,0.0
11:13:35,554344.0,0.0,0.0
11:13:35,554444.0,0.0,0.0
11:13:35,554301.0,0.0,0.0
11:13:35,554481.0,0.0,0.0
11:13:35,554293.0,0.0,0.0
11:13:35,554406.0,0.0,0.0
11:13:35,554452.0,0.0,0.0
11:13:35,554243.0,0.0,0.0
11:13:35,554491.0,0.0,0.0
11:13:35,554256.0,0.0,0.0
11:13:35,554435.0,0.0,0.0
11:13:35,554363.0,0.0,0.0
11:13:35,554283.0,0.0,0.0
11:13:35,554360.0,0.0,0.0
11:13:35,554293.0,0.0,0.0
11:13:35,554248.0,0.0,0.0
11:13:35,554394.0,0.0,0.0
11:13:35,554136.0,0.0,0.0
11:13:35,554427.0,0.0,0.0
11:13:35,554211.0,0.0,0.0
11:13:35,554409.0,0.0,0.0
11:13:35,554341.0,0.0,0.0
11:13:35,554264.0,0.0,0.0
11:13:35,554423.0,0.0,0.0
11:13:35,554340.0,0.0,0.0
11:13:35,554389.0,0.0,0.0
11:13:35,554439.0,0.0,0.0
11:13:35,554281.0,0.0,0.0
11:13:35,554481.0,0.0,0.0
11:13:35,554298.0,0.0,0.0
11:13:35,554233.0,0.0,0.0
11:13:35,554240.0,0.0,0.0
11:13:35,554105.0,0.0,0.0
11:13:35,554399.0,0.0,0.0
11:13:35,554256.0,0.0,0.0
11:13:35,554406.0,0.0,0.0
11:13:35,554348.0,0.0,0.0
11:13:35,554325.0,0.0,0.0
11:13:35,554381.0,0.0,0.0
11:13:35,554305.0,0.0,0.0
11:13:35,554243.0,0.0,0.0
11:13:35,554381.0,0.0,0.0
11:13:35,554148.0,0.0,0.0
11:13:35,554469.0,0.0,0.0
11:13:35,554206.0,0.0,0.0
11:13:35,554380.0,0.0,0.0
11:13:35,554267.0,0.0,0.0
11:13:35,554192.0,0.0,0.0
11:13:35,554322.0,0.0,0.0
11:13:35,554228.0,0.0,0.0
11:13:35,554254.0,0.0,0.0
11:13:35,554289.0,0.0,0.0
11:13:35,554146.0,0.0,0.0
11:13:35,554296.0,0.0,0.0
11:13:35,554139.0,0.0,0.0
11:13:35,554155.0,0.0,0.0
11:13:35,554184.0,0.0,0.0
11:13:35,554036.0,0.0,0.0
11:13:35,554232.0,0.0,0.0
11:13:35,553985.0,0.0,0.0
11:13:35,554141.0,0.0,0.0
11:13:35,554049.0,0.0,0.0
11:13:35,554011.0,0.0,0.0
11:13:35,554064.0,0.0,0.0
11:13:35,553981.0,0.0,0.0
11:13:35,553978.0,0.0,0.0
11:13:35,554132.0,0.0,0.0
11:13:35,553911.0,0.0,0.0
11:13:35,554168.0,0.0,0.0
11:13:35,553881.0,0.0,0.0
11:13:35,554059.0,0.0,0.0
11:13:35,553999.0,0.0,0.0
11:13:35,553965.0,0.0,0.0
11:13:35,554074.0,0.0,0.0
11:13:35,553941.0,0.0,0.0
11:13:35,553992.0,0.0,0.0
11:13:35,554070.0,0.0,0.0
11:13:35,553912.0,0.0,0.0
11:13:35,554068.0,0.0,0.0
11:13:35,553892.0,0.0,0.0
11:13:35,553973.0,0.0,0.0
11:13:35,554013.0,0.0,0.0
11:13:35,553836.0,0.0,0.0
11:13:35,554089.0,0.0,0.0
11:13:35,553868.0,0.0,0.0
11:13:35,554033.0,0.0,0.0
11:13:36,553966.0,0.0,0.0
11:13:36,553923.0,0.0,0.0
11:13:36,554001.0,0.0,0.0
11:13:36,553932.0,0.0,0.0
11:13:36,553872.0,0.0,0.0
11:13:36,554028.0,0.0,0.0
11:13:36,553785.0,0.0,0.0
11:13:36,554049.0,0.0,0.0
11:13:36,553821.0,0.0,0.0
11:13:36,553965.0,0.0,0.0
11:13:36,553911.0,0.0,0.0
11:13:36,553826.0,0.0,0.0
11:13:36,553924.0,0.0,0.0
11:13:36,553798.0,0.0,0.0
11:13:36,553813.0,0.0,0.0
11:13:36,553906.0,0.0,0.0
11:13:36,553806.0,0.0,0.0
11:13:36,553976.0,0.0,0.0
11:13:36,553794.0,0.0,0.0
11:13:36,553833.0,0.0,0.0
11:13:36,553914.0,0.0,0.0
11:13:36,553742.0,0.0,0.0
11:13:36,553969.0,0.0,0.0
11:13:36,553779.0,0.0,0.0
11:13:36,553951.0,0.0,0.0
11:13:36,553873.0,0.0,0.0
11:13:36,553843.0,0.0,0.0
11:13:36,553829.0,0.0,0.0
11:13:36,553636.0,0.0,0.0
11:13:36,553594.0,0.0,0.0
11:13:36,553779.0,0.0,0.0
11:13:36,553618.0,0.0,0.0
11:13:36,554039.0,0.0,0.0
11:13:36,553774.0,0.0,0.0
11:13:36,553892.0,0.0,0.0
11:13:36,553840.0,0.0,0.0
11:13:36,553741.0,0.0,0.0
11:13:36,553833.0,0.0,0.0
11:13:36,553746.0,0.0,0.0
11:13:36,553775.0,0.0,0.0
11:13:36,553829.0,0.0,0.0
11:13:36,553654.0,0.0,0.0
11:13:36,553849.0,0.0,0.0
11:13:36,553684.0,0.0,0.0
11:13:36,553703.0,0.0,0.0
11:13:36,553778.0,0.0,0.0
11:13:36,553578.0,0.0,0.0
11:13:36,553812.0,0.0,0.0
11:13:36,553586.0,0.0,0.0
11:13:36,553722.0,0.0,0.0
11:13:36,553611.0,0.0,0.0
11:13:36,553576.0,0.0,0.0
11:13:36,553663.0,0.0,0.0
11:13:36,553646.0,0.0,0.0
11:13:36,553610.0,0.0,0.0
11:13:36,553735.0,0.0,0.0
11:13:36,553498.0,0.0,0.0
11:13:36,553794.0,0.0,0.0
11:13:36,553473.0,0.0,0.0
11:13:36,553632.0,0.0,0.0
11:13:36,553581.0,0.0,0.0
11:13:36,553502.0,0.0,0.0
11:13:36,553614.0,0.0,0.0
11:13:36,553473.0,0.0,0.0
11:13:36,553543.0,0.0,0.0
11:13:36,553616.0,0.0,0.0
11:13:36,553461.0,0.0,0.0
11:13:36,553629.0,0.0,0.0
11:13:36,553513.0,0.0,0.0
11:13:36,553546.0,0.0,0.0
11:13:36,553632.0,0.0,0.0
11:13:36,553452.0,0.0,0.0
11:13:36,553683.0,0.0,0.0
11:13:36,553406.0,0.0,0.0
11:13:36,553583.0,0.0,0.0
11:13:36,553539.0,0.0,0.0
11:13:36,553532.0,0.0,0.0
11:13:36,553614.0,0.0,0.0
11:13:36,553544.0,0.0,0.0
11:13:36,553509.0,0.0,0.0
11:13:36,553644.0,0.0,0.0
11:13:36,553405.0,0.0,0.0
11:13:36,553714.0,0.0,0.0
11:13:36,553411.0,0.0,0.0
11:13:36,553594.0,0.0,0.0
11:13:36,553526.0,0.0,0.0
11:13:36,553497.0,0.0,0.0
11:13:36,553628.0,0.0,0.0
11:13:36,553489.0,0.0,0.0
11:13:36,553503.0,0.0,0.0
11:13:36,553588.0,0.0,0.0
11:13:36,553465.0,0.0,0.0
11:13:36,553614.0,0.0,0.0
11:13:36,553442.0,0.0,0.0
11:13:36,553498.0,0.0,0.0
11:13:36,553573.0,0.0,0.0
11:13:36,553392.0,0.0,0.0
11:13:36,553607.0,0.0,0.0
11:13:36,553376.0,0.0,0.0
11:13:36,553555.0,0.0,0.0
11:13:36,553464.0,0.0,0.0
11:13:36,553456.0,0.0,0.0
11:13:36,553509.0,0.0,0.0
11:13:36,553438.0,0.0,0.0
11:13:36,553369.0,0.0,0.0
11:13:36,553512.0,0.0,0.0
11:13:36,553202.0,0.0,0.0
11:13:36,553493.0,0.0,0.0
11:13:36,553253.0,0.0,0.0
11:13:36,553386.0,0.0,0.0
11:13:36,553352.0,0.0,0.0
11:13:36,553319.0,0.0,0.0
11:13:36,553414.0,0.0,0.0
11:13:36,553317.0,0.0,0.0
