TimeStramp,ECG,SpO2,Respiration
14:01:00,470503.0,0.0,0.0
14:01:00,470514.0,0.0,0.0
14:01:00,470558.0,0.0,0.0
14:01:00,470440.0,0.0,0.0
14:01:00,470563.0,0.0,0.0
14:01:00,470484.0,0.0,0.0
14:01:00,470458.0,0.0,0.0
14:01:00,470467.0,0.0,0.0
14:01:00,470351.0,0.0,0.0
14:01:00,470424.0,0.0,0.0
14:01:00,470419.0,0.0,0.0
14:01:00,470427.0,0.0,0.0
14:01:00,470472.0,0.0,0.0
14:01:00,470335.0,0.0,0.0
14:01:00,470418.0,0.0,0.0
14:01:00,470339.0,0.0,0.0
14:01:00,470343.0,0.0,0.0
14:01:00,470443.0,0.0,0.0
14:01:00,470345.0,0.0,0.0
14:01:00,470435.0,0.0,0.0
14:01:00,470384.0,0.0,0.0
14:01:00,470348.0,0.0,0.0
14:01:00,470436.0,0.0,0.0
14:01:00,470364.0,0.0,0.0
14:01:00,470447.0,0.0,0.0
14:01:00,470391.0,0.0,0.0
14:01:00,470371.0,0.0,0.0
14:01:00,470436.0,0.0,0.0
14:01:00,470359.0,0.0,0.0
14:01:00,470442.0,0.0,0.0
14:01:00,470397.0,0.0,0.0
14:01:00,470383.0,0.0,0.0
14:01:00,470443.0,0.0,0.0
14:01:00,470303.0,0.0,0.0
14:01:00,470381.0,0.0,0.0
14:01:00,470354.0,0.0,0.0
14:01:00,470363.0,0.0,0.0
14:01:00,470425.0,0.0,0.0
14:01:00,470331.0,0.0,0.0
14:01:00,470391.0,0.0,0.0
14:01:00,470316.0,0.0,0.0
14:01:00,470329.0,0.0,0.0
14:01:00,470385.0,0.0,0.0
14:01:00,470292.0,0.0,0.0
14:01:00,470355.0,0.0,0.0
14:01:00,470339.0,0.0,0.0
14:01:00,470317.0,0.0,0.0
14:01:00,470379.0,0.0,0.0
14:01:00,470297.0,0.0,0.0
14:01:00,470409.0,0.0,0.0
14:01:00,470310.0,0.0,0.0
14:01:00,470283.0,0.0,0.0
14:01:00,470366.0,0.0,0.0
14:01:00,470280.0,0.0,0.0
14:01:00,470355.0,0.0,0.0
14:01:00,470355.0,0.0,0.0
14:01:00,470328.0,0.0,0.0
14:01:00,470415.0,0.0,0.0
14:01:00,470300.0,0.0,0.0
14:01:00,470369.0,0.0,0.0
14:01:00,470324.0,0.0,0.0
14:01:00,470339.0,0.0,0.0
14:01:00,470443.0,0.0,0.0
14:01:00,470358.0,0.0,0.0
14:01:00,470416.0,0.0,0.0
14:01:00,470397.0,0.0,0.0
14:01:00,470393.0,0.0,0.0
14:01:00,470476.0,0.0,0.0
14:01:00,470412.0,0.0,0.0
14:01:00,470491.0,0.0,0.0
14:01:00,470434.0,0.0,0.0
14:01:00,470446.0,0.0,0.0
14:01:00,470501.0,0.0,0.0
14:01:00,470444.0,0.0,0.0
14:01:00,470545.0,0.0,0.0
14:01:00,470498.0,0.0,0.0
14:01:00,470511.0,0.0,0.0
14:01:00,470579.0,0.0,0.0
14:01:00,470467.0,0.0,0.0
14:01:00,470549.0,0.0,0.0
14:01:00,470538.0,0.0,0.0
14:01:00,470533.0,0.0,0.0
14:01:00,470604.0,0.0,0.0
14:01:00,470483.0,0.0,0.0
14:01:00,470524.0,0.0,0.0
14:01:00,470541.0,0.0,0.0
14:01:00,470729.0,0.0,0.0
14:01:00,470953.0,0.0,0.0
14:01:00,470939.0,0.0,0.0
14:01:00,470846.0,0.0,0.0
14:01:00,470707.0,0.0,0.0
14:01:00,470669.0,0.0,0.0
14:01:00,470796.0,0.0,0.0
14:01:00,470795.0,0.0,0.0
14:01:00,470913.0,0.0,0.0
14:01:00,470886.0,0.0,0.0
14:01:00,470905.0,0.0,0.0
14:01:00,471003.0,0.0,0.0
14:01:00,470957.0,0.0,0.0
14:01:00,471108.0,0.0,0.0
14:01:00,471081.0,0.0,0.0
14:01:00,471078.0,0.0,0.0
14:01:00,471194.0,0.0,0.0
14:01:00,471081.0,0.0,0.0
14:01:00,471133.0,0.0,0.0
14:01:00,471128.0,0.0,0.0
14:01:00,471131.0,0.0,0.0
14:01:00,471210.0,0.0,0.0
14:01:00,471098.0,0.0,0.0
14:01:00,471192.0,0.0,0.0
14:01:00,471153.0,0.0,0.0
14:01:00,471144.0,0.0,0.0
14:01:00,471273.0,0.0,0.0
14:01:00,471228.0,0.0,0.0
14:01:00,471294.0,0.0,0.0
14:01:00,471258.0,0.0,0.0
14:01:00,471259.0,0.0,0.0
14:01:00,471384.0,0.0,0.0
14:01:00,471334.0,0.0,0.0
14:01:00,471444.0,0.0,0.0
14:01:00,471421.0,0.0,0.0
14:01:00,471411.0,0.0,0.0
14:01:00,471512.0,0.0,0.0
14:01:00,471429.0,0.0,0.0
14:01:00,471519.0,0.0,0.0
14:01:01,471519.0,0.0,0.0
14:01:01,471520.0,0.0,0.0
14:01:01,471632.0,0.0,0.0
14:01:01,471523.0,0.0,0.0
14:01:01,471621.0,0.0,0.0
14:01:01,471604.0,0.0,0.0
14:01:01,471604.0,0.0,0.0
14:01:01,471676.0,0.0,0.0
14:01:01,471548.0,0.0,0.0
14:01:01,471584.0,0.0,0.0
14:01:01,471555.0,0.0,0.0
14:01:01,471546.0,0.0,0.0
14:01:01,471651.0,0.0,0.0
14:01:01,471591.0,0.0,0.0
14:01:01,471684.0,0.0,0.0
14:01:01,471678.0,0.0,0.0
14:01:01,471609.0,0.0,0.0
14:01:01,471691.0,0.0,0.0
14:01:01,471649.0,0.0,0.0
14:01:01,471749.0,0.0,0.0
14:01:01,471729.0,0.0,0.0
14:01:01,471733.0,0.0,0.0
14:01:01,471821.0,0.0,0.0
14:01:01,471711.0,0.0,0.0
14:01:01,471827.0,0.0,0.0
14:01:01,471821.0,0.0,0.0
14:01:01,471832.0,0.0,0.0
14:01:01,471909.0,0.0,0.0
14:01:01,471839.0,0.0,0.0
14:01:01,471937.0,0.0,0.0
14:01:01,471909.0,0.0,0.0
14:01:01,471894.0,0.0,0.0
14:01:01,472026.0,0.0,0.0
14:01:01,471966.0,0.0,0.0
14:01:01,472018.0,0.0,0.0
14:01:01,471960.0,0.0,0.0
14:01:01,471955.0,0.0,0.0
14:01:01,472066.0,0.0,0.0
14:01:01,472001.0,0.0,0.0
14:01:01,472085.0,0.0,0.0
14:01:01,472099.0,0.0,0.0
14:01:01,472074.0,0.0,0.0
14:01:01,472128.0,0.0,0.0
14:01:01,472046.0,0.0,0.0
14:01:01,472159.0,0.0,0.0
14:01:01,472178.0,0.0,0.0
14:01:01,472160.0,0.0,0.0
14:01:01,472246.0,0.0,0.0
14:01:01,472153.0,0.0,0.0
14:01:01,472202.0,0.0,0.0
14:01:01,472208.0,0.0,0.0
14:01:01,472199.0,0.0,0.0
14:01:01,472252.0,0.0,0.0
14:01:01,472151.0,0.0,0.0
14:01:01,472374.0,0.0,0.0
14:01:01,472404.0,0.0,0.0
14:01:01,472423.0,0.0,0.0
14:01:01,472501.0,0.0,0.0
14:01:01,472333.0,0.0,0.0
14:01:01,472394.0,0.0,0.0
14:01:01,472400.0,0.0,0.0
14:01:01,472392.0,0.0,0.0
14:01:01,472471.0,0.0,0.0
14:01:01,472392.0,0.0,0.0
14:01:01,472529.0,0.0,0.0
14:01:01,472520.0,0.0,0.0
14:01:01,472483.0,0.0,0.0
14:01:01,472577.0,0.0,0.0
14:01:01,472504.0,0.0,0.0
14:01:01,472602.0,0.0,0.0
14:01:01,472605.0,0.0,0.0
14:01:01,472576.0,0.0,0.0
14:01:01,472651.0,0.0,0.0
14:01:01,472541.0,0.0,0.0
14:01:01,472614.0,0.0,0.0
14:01:01,472644.0,0.0,0.0
14:01:01,472654.0,0.0,0.0
14:01:01,472752.0,0.0,0.0
14:01:01,472659.0,0.0,0.0
14:01:01,472719.0,0.0,0.0
14:01:01,472706.0,0.0,0.0
14:01:01,472676.0,0.0,0.0
14:01:01,472796.0,0.0,0.0
14:01:01,472766.0,0.0,0.0
14:01:01,472865.0,0.0,0.0
14:01:01,472867.0,0.0,0.0
14:01:01,472828.0,0.0,0.0
14:01:01,472983.0,0.0,0.0
14:01:01,472951.0,0.0,0.0
14:01:01,473068.0,0.0,0.0
14:01:01,473076.0,0.0,0.0
14:01:01,473036.0,0.0,0.0
14:01:01,473163.0,0.0,0.0
14:01:01,473108.0,0.0,0.0
14:01:01,473190.0,0.0,0.0
14:01:01,473286.0,0.0,0.0
14:01:01,473404.0,0.0,0.0
14:01:01,473443.0,0.0,0.0
14:01:01,473243.0,0.0,0.0
14:01:01,473256.0,0.0,0.0
14:01:01,473293.0,0.0,0.0
14:01:01,473313.0,0.0,0.0
14:01:01,473451.0,0.0,0.0
14:01:01,473436.0,0.0,0.0
14:01:01,473499.0,0.0,0.0
14:01:01,473507.0,0.0,0.0
14:01:01,473515.0,0.0,0.0
14:01:01,473601.0,0.0,0.0
14:01:01,473530.0,0.0,0.0
14:01:01,473627.0,0.0,0.0
14:01:01,473679.0,0.0,0.0
14:01:01,473688.0,0.0,0.0
14:01:01,473766.0,0.0,0.0
14:01:01,473675.0,0.0,0.0
14:01:01,473773.0,0.0,0.0
14:01:01,473841.0,0.0,0.0
14:01:01,473814.0,0.0,0.0
14:01:01,473926.0,0.0,0.0
14:01:01,473858.0,0.0,0.0
14:01:01,474003.0,0.0,0.0
14:01:01,474038.0,0.0,0.0
14:01:01,474039.0,0.0,0.0
14:01:01,474219.0,0.0,0.0
14:01:01,474188.0,0.0,0.0
14:01:01,474262.0,0.0,0.0
14:01:02,474299.0,0.0,0.0
14:01:02,474296.0,0.0,0.0
14:01:02,474481.0,0.0,0.0
14:01:02,474449.0,0.0,0.0
14:01:02,474553.0,0.0,0.0
14:01:02,474556.0,0.0,0.0
14:01:02,474591.0,0.0,0.0
14:01:02,474752.0,0.0,0.0
14:01:02,474699.0,0.0,0.0
14:01:02,474813.0,0.0,0.0
14:01:02,474839.0,0.0,0.0
14:01:02,474809.0,0.0,0.0
14:01:02,475002.0,0.0,0.0
14:01:02,475093.0,0.0,0.0
14:01:02,475223.0,0.0,0.0
14:01:02,475295.0,0.0,0.0
14:01:02,475174.0,0.0,0.0
14:01:02,475222.0,0.0,0.0
14:01:02,475161.0,0.0,0.0
14:01:02,475294.0,0.0,0.0
14:01:02,475368.0,0.0,0.0
14:01:02,475384.0,0.0,0.0
14:01:02,475559.0,0.0,0.0
14:01:02,475498.0,0.0,0.0
14:01:02,475569.0,0.0,0.0
14:01:02,475606.0,0.0,0.0
14:01:02,475593.0,0.0,0.0
14:01:02,475720.0,0.0,0.0
14:01:02,475665.0,0.0,0.0
14:01:02,475763.0,0.0,0.0
14:01:02,475760.0,0.0,0.0
14:01:02,475704.0,0.0,0.0
14:01:02,475793.0,0.0,0.0
14:01:02,475763.0,0.0,0.0
14:01:02,475858.0,0.0,0.0
14:01:02,475907.0,0.0,0.0
14:01:02,475948.0,0.0,0.0
14:01:02,476054.0,0.0,0.0
14:01:02,476066.0,0.0,0.0
14:01:02,476221.0,0.0,0.0
14:01:02,476339.0,0.0,0.0
14:01:02,476416.0,0.0,0.0
14:01:02,476573.0,0.0,0.0
14:01:02,476579.0,0.0,0.0
14:01:02,476704.0,0.0,0.0
14:01:02,476748.0,0.0,0.0
14:01:02,476806.0,0.0,0.0
14:01:02,476961.0,0.0,0.0
14:01:02,476988.0,0.0,0.0
14:01:02,477066.0,0.0,0.0
14:01:02,477114.0,0.0,0.0
14:01:02,477094.0,0.0,0.0
14:01:02,477154.0,0.0,0.0
14:01:02,477102.0,0.0,0.0
14:01:02,477137.0,0.0,0.0
14:01:02,477109.0,0.0,0.0
14:01:02,477085.0,0.0,0.0
14:01:02,477150.0,0.0,0.0
14:01:02,477058.0,0.0,0.0
14:01:02,477166.0,0.0,0.0
14:01:02,477231.0,0.0,0.0
14:01:02,477228.0,0.0,0.0
14:01:02,477314.0,0.0,0.0
14:01:02,477240.0,0.0,0.0
14:01:02,477356.0,0.0,0.0
14:01:02,477416.0,0.0,0.0
14:01:02,477404.0,0.0,0.0
14:01:02,477508.0,0.0,0.0
14:01:02,477467.0,0.0,0.0
14:01:02,477552.0,0.0,0.0
14:01:02,477531.0,0.0,0.0
14:01:02,477524.0,0.0,0.0
14:01:02,477645.0,0.0,0.0
14:01:02,477601.0,0.0,0.0
14:01:02,477664.0,0.0,0.0
14:01:02,477681.0,0.0,0.0
14:01:02,477716.0,0.0,0.0
14:01:02,477839.0,0.0,0.0
14:01:02,477778.0,0.0,0.0
14:01:02,477903.0,0.0,0.0
14:01:02,477917.0,0.0,0.0
14:01:02,477868.0,0.0,0.0
14:01:02,477937.0,0.0,0.0
14:01:02,477884.0,0.0,0.0
14:01:02,478011.0,0.0,0.0
14:01:02,478081.0,0.0,0.0
14:01:02,478088.0,0.0,0.0
14:01:02,478179.0,0.0,0.0
14:01:02,478108.0,0.0,0.0
14:01:02,478211.0,0.0,0.0
14:01:02,478282.0,0.0,0.0
14:01:02,478421.0,0.0,0.0
14:01:02,478625.0,0.0,0.0
14:01:02,478592.0,0.0,0.0
14:01:02,478599.0,0.0,0.0
14:01:02,478531.0,0.0,0.0
14:01:02,478524.0,0.0,0.0
14:01:02,478672.0,0.0,0.0
14:01:02,478638.0,0.0,0.0
14:01:02,478765.0,0.0,0.0
14:01:02,478767.0,0.0,0.0
14:01:02,478734.0,0.0,0.0
14:01:02,478887.0,0.0,0.0
14:01:02,478815.0,0.0,0.0
14:01:02,478931.0,0.0,0.0
14:01:02,478922.0,0.0,0.0
14:01:02,478906.0,0.0,0.0
14:01:02,479043.0,0.0,0.0
14:01:02,478945.0,0.0,0.0
14:01:02,479078.0,0.0,0.0
14:01:02,479081.0,0.0,0.0
14:01:02,479069.0,0.0,0.0
14:01:02,479183.0,0.0,0.0
14:01:02,479071.0,0.0,0.0
14:01:02,479146.0,0.0,0.0
14:01:02,479144.0,0.0,0.0
14:01:02,479159.0,0.0,0.0
14:01:02,479266.0,0.0,0.0
14:01:02,479205.0,0.0,0.0
14:01:02,479318.0,0.0,0.0
14:01:02,479329.0,0.0,0.0
14:01:02,479321.0,0.0,0.0
14:01:02,479426.0,0.0,0.0
14:01:02,479352.0,0.0,0.0
14:01:02,479421.0,0.0,0.0
14:01:03,479403.0,0.0,0.0
14:01:03,479314.0,0.0,0.0
14:01:03,479401.0,0.0,0.0
14:01:03,479366.0,0.0,0.0
14:01:03,479464.0,0.0,0.0
14:01:03,479472.0,0.0,0.0
14:01:03,479464.0,0.0,0.0
14:01:03,479586.0,0.0,0.0
14:01:03,479521.0,0.0,0.0
14:01:03,479653.0,0.0,0.0
14:01:03,479697.0,0.0,0.0
14:01:03,479711.0,0.0,0.0
14:01:03,479836.0,0.0,0.0
14:01:03,479798.0,0.0,0.0
14:01:03,479917.0,0.0,0.0
14:01:03,479971.0,0.0,0.0
14:01:03,479998.0,0.0,0.0
14:01:03,480120.0,0.0,0.0
14:01:03,480100.0,0.0,0.0
14:01:03,480173.0,0.0,0.0
14:01:03,480169.0,0.0,0.0
14:01:03,480146.0,0.0,0.0
14:01:03,480363.0,0.0,0.0
14:01:03,480409.0,0.0,0.0
14:01:03,480461.0,0.0,0.0
14:01:03,480528.0,0.0,0.0
14:01:03,480578.0,0.0,0.0
14:01:03,480733.0,0.0,0.0
14:01:03,480606.0,0.0,0.0
14:01:03,480671.0,0.0,0.0
14:01:03,480686.0,0.0,0.0
14:01:03,480665.0,0.0,0.0
14:01:03,480746.0,0.0,0.0
14:01:03,480708.0,0.0,0.0
14:01:03,480820.0,0.0,0.0
14:01:03,480810.0,0.0,0.0
14:01:03,480859.0,0.0,0.0
14:01:03,480986.0,0.0,0.0
14:01:03,480872.0,0.0,0.0
14:01:03,480885.0,0.0,0.0
14:01:03,480873.0,0.0,0.0
14:01:03,480921.0,0.0,0.0
14:01:03,481089.0,0.0,0.0
14:01:03,481105.0,0.0,0.0
14:01:03,481182.0,0.0,0.0
14:01:03,481018.0,0.0,0.0
14:01:03,480920.0,0.0,0.0
14:01:03,480998.0,0.0,0.0
14:01:03,480914.0,0.0,0.0
14:01:03,481028.0,0.0,0.0
14:01:03,481035.0,0.0,0.0
14:01:03,481024.0,0.0,0.0
14:01:03,481067.0,0.0,0.0
14:01:03,480989.0,0.0,0.0
14:01:03,481067.0,0.0,0.0
14:01:03,481031.0,0.0,0.0
14:01:03,480979.0,0.0,0.0
14:01:03,481025.0,0.0,0.0
14:01:03,480908.0,0.0,0.0
14:01:03,480923.0,0.0,0.0
14:01:03,480918.0,0.0,0.0
14:01:03,480889.0,0.0,0.0
14:01:03,480960.0,0.0,0.0
14:01:03,480866.0,0.0,0.0
14:01:03,480878.0,0.0,0.0
14:01:03,480816.0,0.0,0.0
14:01:03,480747.0,0.0,0.0
14:01:03,480798.0,0.0,0.0
14:01:03,480776.0,0.0,0.0
14:01:03,480801.0,0.0,0.0
14:01:03,480793.0,0.0,0.0
14:01:03,480743.0,0.0,0.0
14:01:03,480809.0,0.0,0.0
14:01:03,480668.0,0.0,0.0
14:01:03,480662.0,0.0,0.0
14:01:03,480664.0,0.0,0.0
14:01:03,480640.0,0.0,0.0
14:01:03,480600.0,0.0,0.0
14:01:03,480524.0,0.0,0.0
14:01:03,480579.0,0.0,0.0
14:01:03,480525.0,0.0,0.0
14:01:03,480494.0,0.0,0.0
14:01:03,480528.0,0.0,0.0
14:01:03,480436.0,0.0,0.0
14:01:03,480441.0,0.0,0.0
14:01:03,480392.0,0.0,0.0
14:01:03,480319.0,0.0,0.0
14:01:03,480374.0,0.0,0.0
14:01:03,480248.0,0.0,0.0
14:01:03,480284.0,0.0,0.0
14:01:03,480224.0,0.0,0.0
14:01:03,480158.0,0.0,0.0
14:01:03,480192.0,0.0,0.0
14:01:03,480073.0,0.0,0.0
14:01:03,480099.0,0.0,0.0
14:01:03,480074.0,0.0,0.0
14:01:03,479984.0,0.0,0.0
14:01:03,480034.0,0.0,0.0
14:01:03,479936.0,0.0,0.0
14:01:03,479949.0,0.0,0.0
14:01:03,479880.0,0.0,0.0
14:01:03,479793.0,0.0,0.0
14:01:03,479806.0,0.0,0.0
14:01:03,479644.0,0.0,0.0
14:01:03,479675.0,0.0,0.0
14:01:03,479690.0,0.0,0.0
14:01:03,479629.0,0.0,0.0
14:01:03,479662.0,0.0,0.0
14:01:03,479509.0,0.0,0.0
14:01:03,479504.0,0.0,0.0
14:01:03,479465.0,0.0,0.0
14:01:03,479358.0,0.0,0.0
14:01:03,479324.0,0.0,0.0
14:01:03,479202.0,0.0,0.0
14:01:03,479218.0,0.0,0.0
14:01:03,479102.0,0.0,0.0
14:01:03,478947.0,0.0,0.0
14:01:03,478983.0,0.0,0.0
14:01:03,478933.0,0.0,0.0
14:01:03,479019.0,0.0,0.0
14:01:03,478996.0,0.0,0.0
14:01:03,478759.0,0.0,0.0
14:01:03,478593.0,0.0,0.0
14:01:03,478374.0,0.0,0.0
14:01:03,478482.0,0.0,0.0
14:01:04,478434.0,0.0,0.0
14:01:04,478338.0,0.0,0.0
14:01:04,478350.0,0.0,0.0
14:01:04,478161.0,0.0,0.0
14:01:04,478212.0,0.0,0.0
14:01:04,478085.0,0.0,0.0
14:01:04,477962.0,0.0,0.0
14:01:04,477940.0,0.0,0.0
14:01:04,477686.0,0.0,0.0
14:01:04,477609.0,0.0,0.0
14:01:04,477470.0,0.0,0.0
14:01:04,477388.0,0.0,0.0
14:01:04,477459.0,0.0,0.0
14:01:04,477352.0,0.0,0.0
14:01:04,477484.0,0.0,0.0
14:01:04,477495.0,0.0,0.0
14:01:04,477516.0,0.0,0.0
14:01:04,477669.0,0.0,0.0
14:01:04,477649.0,0.0,0.0
14:01:04,477812.0,0.0,0.0
14:01:04,477853.0,0.0,0.0
14:01:04,477842.0,0.0,0.0
14:01:04,477913.0,0.0,0.0
14:01:04,477706.0,0.0,0.0
14:01:04,477726.0,0.0,0.0
14:01:04,477651.0,0.0,0.0
14:01:04,477509.0,0.0,0.0
14:01:04,477492.0,0.0,0.0
14:01:04,477289.0,0.0,0.0
14:01:04,477304.0,0.0,0.0
14:01:04,477229.0,0.0,0.0
14:01:04,477155.0,0.0,0.0
14:01:04,477219.0,0.0,0.0
14:01:04,477021.0,0.0,0.0
14:01:04,476954.0,0.0,0.0
14:01:04,476944.0,0.0,0.0
14:01:04,476872.0,0.0,0.0
14:01:04,476890.0,0.0,0.0
14:01:04,476770.0,0.0,0.0
14:01:04,476791.0,0.0,0.0
14:01:04,476812.0,0.0,0.0
14:01:04,476758.0,0.0,0.0
14:01:04,476778.0,0.0,0.0
14:01:04,476654.0,0.0,0.0
14:01:04,476651.0,0.0,0.0
14:01:04,476578.0,0.0,0.0
14:01:04,476523.0,0.0,0.0
14:01:04,476534.0,0.0,0.0
14:01:04,476402.0,0.0,0.0
14:01:04,476321.0,0.0,0.0
14:01:04,476246.0,0.0,0.0
14:01:04,476114.0,0.0,0.0
14:01:04,476196.0,0.0,0.0
14:01:04,476141.0,0.0,0.0
14:01:04,476120.0,0.0,0.0
14:01:04,476119.0,0.0,0.0
14:01:04,476044.0,0.0,0.0
14:01:04,476080.0,0.0,0.0
14:01:04,475973.0,0.0,0.0
14:01:04,475927.0,0.0,0.0
14:01:04,475895.0,0.0,0.0
14:01:04,475761.0,0.0,0.0
14:01:04,475792.0,0.0,0.0
14:01:04,475691.0,0.0,0.0
14:01:04,475662.0,0.0,0.0
14:01:04,475614.0,0.0,0.0
14:01:04,475451.0,0.0,0.0
14:01:04,475416.0,0.0,0.0
14:01:04,475416.0,0.0,0.0
14:01:04,475532.0,0.0,0.0
14:01:04,475686.0,0.0,0.0
14:01:04,475637.0,0.0,0.0
14:01:04,475533.0,0.0,0.0
14:01:04,475405.0,0.0,0.0
14:01:04,475353.0,0.0,0.0
14:01:04,475403.0,0.0,0.0
14:01:04,475385.0,0.0,0.0
14:01:04,475463.0,0.0,0.0
14:01:04,475353.0,0.0,0.0
14:01:04,475363.0,0.0,0.0
14:01:04,475368.0,0.0,0.0
14:01:04,475321.0,0.0,0.0
14:01:04,475356.0,0.0,0.0
14:01:04,475277.0,0.0,0.0
14:01:04,475246.0,0.0,0.0
14:01:04,475217.0,0.0,0.0
14:01:04,475105.0,0.0,0.0
14:01:04,475113.0,0.0,0.0
14:01:04,475099.0,0.0,0.0
14:01:04,475088.0,0.0,0.0
14:01:04,475124.0,0.0,0.0
14:01:04,475094.0,0.0,0.0
14:01:04,475108.0,0.0,0.0
14:01:04,474966.0,0.0,0.0
14:01:04,475000.0,0.0,0.0
14:01:04,475009.0,0.0,0.0
14:01:04,474967.0,0.0,0.0
14:01:04,474997.0,0.0,0.0
14:01:04,474931.0,0.0,0.0
14:01:04,474953.0,0.0,0.0
14:01:04,474942.0,0.0,0.0
14:01:04,474881.0,0.0,0.0
14:01:04,474987.0,0.0,0.0
14:01:04,474983.0,0.0,0.0
14:01:04,474998.0,0.0,0.0
14:01:04,474947.0,0.0,0.0
14:01:04,474887.0,0.0,0.0
14:01:04,474933.0,0.0,0.0
14:01:04,474848.0,0.0,0.0
14:01:04,474911.0,0.0,0.0
14:01:04,474929.0,0.0,0.0
14:01:04,474888.0,0.0,0.0
14:01:04,474967.0,0.0,0.0
14:01:04,474866.0,0.0,0.0
14:01:04,474866.0,0.0,0.0
14:01:04,474884.0,0.0,0.0
14:01:04,474837.0,0.0,0.0
14:01:04,474924.0,0.0,0.0
14:01:04,474839.0,0.0,0.0
14:01:04,474829.0,0.0,0.0
14:01:04,474866.0,0.0,0.0
14:01:04,474775.0,0.0,0.0
14:01:04,474801.0,0.0,0.0
14:01:04,474726.0,0.0,0.0
14:01:04,474688.0,0.0,0.0
14:01:05,474696.0,0.0,0.0
14:01:05,474648.0,0.0,0.0
14:01:05,474766.0,0.0,0.0
14:01:05,474735.0,0.0,0.0
14:01:05,474709.0,0.0,0.0
14:01:05,474677.0,0.0,0.0
14:01:05,474577.0,0.0,0.0
14:01:05,474617.0,0.0,0.0
14:01:05,474517.0,0.0,0.0
14:01:05,474523.0,0.0,0.0
14:01:05,474474.0,0.0,0.0
14:01:05,474361.0,0.0,0.0
14:01:05,474410.0,0.0,0.0
14:01:05,474299.0,0.0,0.0
14:01:05,474298.0,0.0,0.0
14:01:05,474254.0,0.0,0.0
14:01:05,474099.0,0.0,0.0
14:01:05,474081.0,0.0,0.0
14:01:05,474099.0,0.0,0.0
14:01:05,474273.0,0.0,0.0
14:01:05,474388.0,0.0,0.0
14:01:05,474228.0,0.0,0.0
14:01:05,474092.0,0.0,0.0
14:01:05,473936.0,0.0,0.0
14:01:05,473953.0,0.0,0.0
14:01:05,473911.0,0.0,0.0
14:01:05,473819.0,0.0,0.0
14:01:05,473943.0,0.0,0.0
14:01:05,473957.0,0.0,0.0
14:01:05,474029.0,0.0,0.0
14:01:05,474036.0,0.0,0.0
14:01:05,474025.0,0.0,0.0
14:01:05,474066.0,0.0,0.0
14:01:05,473884.0,0.0,0.0
14:01:05,473888.0,0.0,0.0
14:01:05,473889.0,0.0,0.0
14:01:05,473821.0,0.0,0.0
14:01:05,473880.0,0.0,0.0
14:01:05,473740.0,0.0,0.0
14:01:05,473748.0,0.0,0.0
14:01:05,473737.0,0.0,0.0
14:01:05,473700.0,0.0,0.0
14:01:05,473801.0,0.0,0.0
14:01:05,473728.0,0.0,0.0
14:01:05,473758.0,0.0,0.0
14:01:05,473720.0,0.0,0.0
14:01:05,473651.0,0.0,0.0
14:01:05,473732.0,0.0,0.0
14:01:05,473639.0,0.0,0.0
14:01:05,473674.0,0.0,0.0
14:01:05,473683.0,0.0,0.0
14:01:05,473624.0,0.0,0.0
14:01:05,473699.0,0.0,0.0
14:01:05,473634.0,0.0,0.0
14:01:05,473700.0,0.0,0.0
14:01:05,473764.0,0.0,0.0
14:01:05,473579.0,0.0,0.0
14:01:05,473558.0,0.0,0.0
14:01:05,473501.0,0.0,0.0
14:01:05,473513.0,0.0,0.0
14:01:05,473556.0,0.0,0.0
14:01:05,473443.0,0.0,0.0
14:01:05,473556.0,0.0,0.0
14:01:05,473542.0,0.0,0.0
14:01:05,473526.0,0.0,0.0
14:01:05,473570.0,0.0,0.0
14:01:05,473502.0,0.0,0.0
14:01:05,473604.0,0.0,0.0
14:01:05,473603.0,0.0,0.0
14:01:05,473628.0,0.0,0.0
14:01:05,473689.0,0.0,0.0
14:01:05,473629.0,0.0,0.0
14:01:05,473680.0,0.0,0.0
14:01:05,473581.0,0.0,0.0
14:01:05,473625.0,0.0,0.0
14:01:05,473706.0,0.0,0.0
14:01:05,473701.0,0.0,0.0
14:01:05,473828.0,0.0,0.0
14:01:05,473768.0,0.0,0.0
14:01:05,473743.0,0.0,0.0
14:01:05,473774.0,0.0,0.0
14:01:05,473718.0,0.0,0.0
14:01:05,473794.0,0.0,0.0
14:01:05,473739.0,0.0,0.0
14:01:05,473803.0,0.0,0.0
14:01:05,473819.0,0.0,0.0
14:01:05,473743.0,0.0,0.0
14:01:05,473777.0,0.0,0.0
14:01:05,473684.0,0.0,0.0
14:01:05,473758.0,0.0,0.0
14:01:05,473718.0,0.0,0.0
14:01:05,473606.0,0.0,0.0
14:01:05,473652.0,0.0,0.0
14:01:05,473744.0,0.0,0.0
14:01:05,473968.0,0.0,0.0
14:01:05,474083.0,0.0,0.0
14:01:05,473854.0,0.0,0.0
14:01:05,473728.0,0.0,0.0
14:01:05,473604.0,0.0,0.0
14:01:05,473630.0,0.0,0.0
14:01:05,473641.0,0.0,0.0
14:01:05,473615.0,0.0,0.0
14:01:05,473679.0,0.0,0.0
14:01:05,473543.0,0.0,0.0
14:01:05,473663.0,0.0,0.0
14:01:05,473641.0,0.0,0.0
14:01:05,473605.0,0.0,0.0
14:01:05,473688.0,0.0,0.0
14:01:05,473554.0,0.0,0.0
14:01:05,473604.0,0.0,0.0
14:01:05,473538.0,0.0,0.0
14:01:05,473485.0,0.0,0.0
14:01:05,473569.0,0.0,0.0
14:01:05,473466.0,0.0,0.0
14:01:05,473480.0,0.0,0.0
14:01:05,473428.0,0.0,0.0
14:01:05,473324.0,0.0,0.0
14:01:05,473439.0,0.0,0.0
14:01:05,473345.0,0.0,0.0
14:01:05,473369.0,0.0,0.0
14:01:05,473388.0,0.0,0.0
14:01:05,473303.0,0.0,0.0
14:01:05,473349.0,0.0,0.0
14:01:05,473231.0,0.0,0.0
14:01:05,473207.0,0.0,0.0
14:01:06,473268.0,0.0,0.0
14:01:06,473227.0,0.0,0.0
14:01:06,473309.0,0.0,0.0
14:01:06,473171.0,0.0,0.0
14:01:06,473189.0,0.0,0.0
14:01:06,473152.0,0.0,0.0
14:01:06,473051.0,0.0,0.0
14:01:06,473114.0,0.0,0.0
14:01:06,473009.0,0.0,0.0
14:01:06,472984.0,0.0,0.0
14:01:06,472967.0,0.0,0.0
14:01:06,472844.0,0.0,0.0
14:01:06,472891.0,0.0,0.0
14:01:06,472816.0,0.0,0.0
14:01:06,472772.0,0.0,0.0
14:01:06,472729.0,0.0,0.0
14:01:06,472592.0,0.0,0.0
14:01:06,472623.0,0.0,0.0
14:01:06,472524.0,0.0,0.0
14:01:06,472501.0,0.0,0.0
14:01:06,472516.0,0.0,0.0
14:01:06,472377.0,0.0,0.0
14:01:06,472415.0,0.0,0.0
14:01:06,472321.0,0.0,0.0
14:01:06,472309.0,0.0,0.0
14:01:06,472378.0,0.0,0.0
14:01:06,472268.0,0.0,0.0
14:01:06,472354.0,0.0,0.0
14:01:06,472274.0,0.0,0.0
14:01:06,472281.0,0.0,0.0
14:01:06,472399.0,0.0,0.0
14:01:06,472359.0,0.0,0.0
14:01:06,472531.0,0.0,0.0
14:01:06,472579.0,0.0,0.0
14:01:06,472587.0,0.0,0.0
14:01:06,472606.0,0.0,0.0
14:01:06,472466.0,0.0,0.0
14:01:06,472544.0,0.0,0.0
14:01:06,472489.0,0.0,0.0
14:01:06,472444.0,0.0,0.0
14:01:06,472443.0,0.0,0.0
14:01:06,472244.0,0.0,0.0
14:01:06,472154.0,0.0,0.0
14:01:06,472013.0,0.0,0.0
14:01:06,472111.0,0.0,0.0
14:01:06,472334.0,0.0,0.0
14:01:06,472366.0,0.0,0.0
14:01:06,472301.0,0.0,0.0
14:01:06,472055.0,0.0,0.0
14:01:06,471998.0,0.0,0.0
14:01:06,472101.0,0.0,0.0
14:01:06,472117.0,0.0,0.0
14:01:06,472249.0,0.0,0.0
14:01:06,472222.0,0.0,0.0
14:01:06,472228.0,0.0,0.0
14:01:06,472288.0,0.0,0.0
14:01:06,472238.0,0.0,0.0
14:01:06,472301.0,0.0,0.0
14:01:06,472259.0,0.0,0.0
14:01:06,472266.0,0.0,0.0
14:01:06,472298.0,0.0,0.0
14:01:06,472201.0,0.0,0.0
14:01:06,472280.0,0.0,0.0
14:01:06,472229.0,0.0,0.0
14:01:06,472256.0,0.0,0.0
14:01:06,472341.0,0.0,0.0
14:01:06,472271.0,0.0,0.0
14:01:06,472261.0,0.0,0.0
14:01:06,472221.0,0.0,0.0
14:01:06,472219.0,0.0,0.0
14:01:06,472247.0,0.0,0.0
14:01:06,472176.0,0.0,0.0
14:01:06,472261.0,0.0,0.0
14:01:06,472236.0,0.0,0.0
14:01:06,472228.0,0.0,0.0
14:01:06,472338.0,0.0,0.0
14:01:06,472194.0,0.0,0.0
14:01:06,472048.0,0.0,0.0
14:01:06,472069.0,0.0,0.0
14:01:06,472070.0,0.0,0.0
14:01:06,472018.0,0.0,0.0
14:01:06,471854.0,0.0,0.0
14:01:06,471827.0,0.0,0.0
14:01:06,471766.0,0.0,0.0
14:01:06,471766.0,0.0,0.0
14:01:06,471737.0,0.0,0.0
14:01:06,471618.0,0.0,0.0
14:01:06,471693.0,0.0,0.0
14:01:06,471615.0,0.0,0.0
14:01:06,471624.0,0.0,0.0
14:01:06,471743.0,0.0,0.0
14:01:06,471666.0,0.0,0.0
14:01:06,471732.0,0.0,0.0
14:01:06,471758.0,0.0,0.0
14:01:06,471723.0,0.0,0.0
14:01:06,471728.0,0.0,0.0
14:01:06,471682.0,0.0,0.0
14:01:06,471725.0,0.0,0.0
14:01:06,471659.0,0.0,0.0
14:01:06,471596.0,0.0,0.0
14:01:06,471651.0,0.0,0.0
14:01:06,471596.0,0.0,0.0
14:01:06,471677.0,0.0,0.0
14:01:06,471710.0,0.0,0.0
14:01:06,471712.0,0.0,0.0
14:01:06,471746.0,0.0,0.0
14:01:06,471745.0,0.0,0.0
14:01:06,471876.0,0.0,0.0
14:01:06,471884.0,0.0,0.0
14:01:06,471936.0,0.0,0.0
14:01:06,471983.0,0.0,0.0
14:01:06,471887.0,0.0,0.0
14:01:06,471973.0,0.0,0.0
14:01:06,471959.0,0.0,0.0
14:01:06,471936.0,0.0,0.0
14:01:06,472053.0,0.0,0.0
14:01:06,472075.0,0.0,0.0
14:01:06,472129.0,0.0,0.0
14:01:06,472023.0,0.0,0.0
14:01:06,472131.0,0.0,0.0
14:01:06,472407.0,0.0,0.0
14:01:06,472491.0,0.0,0.0
14:01:06,472683.0,0.0,0.0
14:01:06,472463.0,0.0,0.0
14:01:06,472349.0,0.0,0.0
14:01:07,472360.0,0.0,0.0
14:01:07,472325.0,0.0,0.0
14:01:07,472410.0,0.0,0.0
14:01:07,472452.0,0.0,0.0
14:01:07,472523.0,0.0,0.0
14:01:07,472554.0,0.0,0.0
14:01:07,472482.0,0.0,0.0
14:01:07,472604.0,0.0,0.0
14:01:07,472646.0,0.0,0.0
14:01:07,472610.0,0.0,0.0
14:01:07,472657.0,0.0,0.0
14:01:07,472629.0,0.0,0.0
14:01:07,472565.0,0.0,0.0
14:01:07,472464.0,0.0,0.0
14:01:07,472532.0,0.0,0.0
14:01:07,472578.0,0.0,0.0
14:01:07,472517.0,0.0,0.0
14:01:07,472611.0,0.0,0.0
14:01:07,472553.0,0.0,0.0
14:01:07,472512.0,0.0,0.0
14:01:07,472548.0,0.0,0.0
14:01:07,472478.0,0.0,0.0
14:01:07,472564.0,0.0,0.0
14:01:07,472598.0,0.0,0.0
14:01:07,472572.0,0.0,0.0
14:01:07,472631.0,0.0,0.0
14:01:07,472589.0,0.0,0.0
14:01:07,472676.0,0.0,0.0
14:01:07,472701.0,0.0,0.0
14:01:07,472708.0,0.0,0.0
14:01:07,472780.0,0.0,0.0
14:01:07,472736.0,0.0,0.0
14:01:07,472801.0,0.0,0.0
14:01:07,472778.0,0.0,0.0
14:01:07,472783.0,0.0,0.0
14:01:07,472938.0,0.0,0.0
14:01:07,472809.0,0.0,0.0
14:01:07,472853.0,0.0,0.0
14:01:07,472861.0,0.0,0.0
14:01:07,472853.0,0.0,0.0
14:01:07,472929.0,0.0,0.0
14:01:07,472860.0,0.0,0.0
14:01:07,472929.0,0.0,0.0
14:01:07,472941.0,0.0,0.0
14:01:07,472954.0,0.0,0.0
14:01:07,473031.0,0.0,0.0
14:01:07,472966.0,0.0,0.0
14:01:07,473091.0,0.0,0.0
14:01:07,473097.0,0.0,0.0
14:01:07,473124.0,0.0,0.0
14:01:07,473172.0,0.0,0.0
14:01:07,473074.0,0.0,0.0
14:01:07,473096.0,0.0,0.0
14:01:07,473068.0,0.0,0.0
14:01:07,473104.0,0.0,0.0
14:01:07,473208.0,0.0,0.0
14:01:07,473121.0,0.0,0.0
14:01:07,473185.0,0.0,0.0
14:01:07,473149.0,0.0,0.0
14:01:07,473134.0,0.0,0.0
14:01:07,473244.0,0.0,0.0
14:01:07,473198.0,0.0,0.0
14:01:07,473283.0,0.0,0.0
14:01:07,473276.0,0.0,0.0
14:01:07,473244.0,0.0,0.0
14:01:07,473275.0,0.0,0.0
14:01:07,473155.0,0.0,0.0
14:01:07,473324.0,0.0,0.0
14:01:07,473431.0,0.0,0.0
14:01:07,473450.0,0.0,0.0
14:01:07,473590.0,0.0,0.0
14:01:07,473420.0,0.0,0.0
14:01:07,473382.0,0.0,0.0
14:01:07,473371.0,0.0,0.0
14:01:07,473438.0,0.0,0.0
14:01:07,473594.0,0.0,0.0
14:01:07,473541.0,0.0,0.0
14:01:07,473677.0,0.0,0.0
14:01:07,473715.0,0.0,0.0
14:01:07,473744.0,0.0,0.0
14:01:07,473861.0,0.0,0.0
14:01:07,473864.0,0.0,0.0
14:01:07,473935.0,0.0,0.0
14:01:07,473876.0,0.0,0.0
14:01:07,473890.0,0.0,0.0
14:01:07,474014.0,0.0,0.0
14:01:07,473933.0,0.0,0.0
14:01:07,474061.0,0.0,0.0
14:01:07,474077.0,0.0,0.0
14:01:07,474074.0,0.0,0.0
14:01:07,474169.0,0.0,0.0
14:01:07,474093.0,0.0,0.0
14:01:07,474147.0,0.0,0.0
14:01:07,474170.0,0.0,0.0
14:01:07,474124.0,0.0,0.0
14:01:07,474216.0,0.0,0.0
14:01:07,474124.0,0.0,0.0
14:01:07,474231.0,0.0,0.0
14:01:07,474246.0,0.0,0.0
14:01:07,474228.0,0.0,0.0
14:01:07,474342.0,0.0,0.0
14:01:07,474263.0,0.0,0.0
14:01:07,474355.0,0.0,0.0
14:01:07,474364.0,0.0,0.0
14:01:07,474368.0,0.0,0.0
14:01:07,474512.0,0.0,0.0
14:01:07,474455.0,0.0,0.0
14:01:07,474549.0,0.0,0.0
14:01:07,474583.0,0.0,0.0
14:01:07,474580.0,0.0,0.0
14:01:07,474681.0,0.0,0.0
14:01:07,474646.0,0.0,0.0
14:01:07,474763.0,0.0,0.0
14:01:07,474803.0,0.0,0.0
14:01:07,474758.0,0.0,0.0
14:01:07,474843.0,0.0,0.0
14:01:07,474783.0,0.0,0.0
14:01:07,474830.0,0.0,0.0
14:01:07,474801.0,0.0,0.0
14:01:07,474756.0,0.0,0.0
14:01:07,474829.0,0.0,0.0
14:01:07,474790.0,0.0,0.0
14:01:07,474869.0,0.0,0.0
14:01:07,474870.0,0.0,0.0
14:01:07,474858.0,0.0,0.0
14:01:08,474980.0,0.0,0.0
14:01:08,474945.0,0.0,0.0
14:01:08,475004.0,0.0,0.0
14:01:08,474971.0,0.0,0.0
14:01:08,474957.0,0.0,0.0
14:01:08,475037.0,0.0,0.0
14:01:08,474939.0,0.0,0.0
14:01:08,475064.0,0.0,0.0
14:01:08,475064.0,0.0,0.0
14:01:08,474988.0,0.0,0.0
14:01:08,475081.0,0.0,0.0
14:01:08,475007.0,0.0,0.0
14:01:08,475043.0,0.0,0.0
14:01:08,475067.0,0.0,0.0
14:01:08,475185.0,0.0,0.0
14:01:08,475421.0,0.0,0.0
14:01:08,475421.0,0.0,0.0
14:01:08,475502.0,0.0,0.0
14:01:08,475374.0,0.0,0.0
14:01:08,475308.0,0.0,0.0
14:01:08,475417.0,0.0,0.0
14:01:08,475360.0,0.0,0.0
14:01:08,475485.0,0.0,0.0
14:01:08,475563.0,0.0,0.0
14:01:08,475536.0,0.0,0.0
14:01:08,475659.0,0.0,0.0
14:01:08,475641.0,0.0,0.0
14:01:08,475728.0,0.0,0.0
14:01:08,475713.0,0.0,0.0
14:01:08,475651.0,0.0,0.0
14:01:08,475718.0,0.0,0.0
14:01:08,475679.0,0.0,0.0
14:01:08,475743.0,0.0,0.0
14:01:08,475776.0,0.0,0.0
14:01:08,475724.0,0.0,0.0
14:01:08,475763.0,0.0,0.0
14:01:08,475664.0,0.0,0.0
14:01:08,475739.0,0.0,0.0
14:01:08,475729.0,0.0,0.0
14:01:08,475663.0,0.0,0.0
14:01:08,475712.0,0.0,0.0
14:01:08,475665.0,0.0,0.0
14:01:08,475694.0,0.0,0.0
14:01:08,475650.0,0.0,0.0
14:01:08,475663.0,0.0,0.0
14:01:08,475754.0,0.0,0.0
14:01:08,475697.0,0.0,0.0
14:01:08,475776.0,0.0,0.0
14:01:08,475788.0,0.0,0.0
14:01:08,475751.0,0.0,0.0
14:01:08,475806.0,0.0,0.0
14:01:08,475758.0,0.0,0.0
14:01:08,475859.0,0.0,0.0
14:01:08,475894.0,0.0,0.0
14:01:08,475907.0,0.0,0.0
14:01:08,475956.0,0.0,0.0
14:01:08,475846.0,0.0,0.0
14:01:08,475893.0,0.0,0.0
14:01:08,475838.0,0.0,0.0
14:01:08,475818.0,0.0,0.0
14:01:08,475844.0,0.0,0.0
14:01:08,475740.0,0.0,0.0
14:01:08,475763.0,0.0,0.0
14:01:08,475738.0,0.0,0.0
14:01:08,475753.0,0.0,0.0
14:01:08,475841.0,0.0,0.0
14:01:08,475749.0,0.0,0.0
14:01:08,475844.0,0.0,0.0
14:01:08,475814.0,0.0,0.0
14:01:08,475756.0,0.0,0.0
14:01:08,475810.0,0.0,0.0
14:01:08,475729.0,0.0,0.0
14:01:08,475840.0,0.0,0.0
14:01:08,475850.0,0.0,0.0
14:01:08,475838.0,0.0,0.0
14:01:08,475889.0,0.0,0.0
14:01:08,475839.0,0.0,0.0
14:01:08,475921.0,0.0,0.0
14:01:08,475968.0,0.0,0.0
14:01:08,476016.0,0.0,0.0
14:01:08,476073.0,0.0,0.0
14:01:08,476041.0,0.0,0.0
14:01:08,476110.0,0.0,0.0
14:01:08,476093.0,0.0,0.0
14:01:08,476078.0,0.0,0.0
14:01:08,476278.0,0.0,0.0
14:01:08,476319.0,0.0,0.0
14:01:08,476433.0,0.0,0.0
14:01:08,476367.0,0.0,0.0
14:01:08,476227.0,0.0,0.0
14:01:08,476233.0,0.0,0.0
14:01:08,476172.0,0.0,0.0
14:01:08,476304.0,0.0,0.0
14:01:08,476321.0,0.0,0.0
14:01:08,476290.0,0.0,0.0
14:01:08,476356.0,0.0,0.0
14:01:08,476252.0,0.0,0.0
14:01:08,476372.0,0.0,0.0
14:01:08,476308.0,0.0,0.0
14:01:08,476253.0,0.0,0.0
14:01:08,476344.0,0.0,0.0
14:01:08,476276.0,0.0,0.0
14:01:08,476335.0,0.0,0.0
14:01:08,476299.0,0.0,0.0
14:01:08,476324.0,0.0,0.0
14:01:08,476448.0,0.0,0.0
14:01:08,476391.0,0.0,0.0
14:01:08,476536.0,0.0,0.0
14:01:08,476596.0,0.0,0.0
14:01:08,476674.0,0.0,0.0
14:01:08,476848.0,0.0,0.0
14:01:08,476906.0,0.0,0.0
14:01:08,477084.0,0.0,0.0
14:01:08,477159.0,0.0,0.0
14:01:08,477255.0,0.0,0.0
14:01:08,477416.0,0.0,0.0
14:01:08,477394.0,0.0,0.0
14:01:08,477526.0,0.0,0.0
14:01:08,477558.0,0.0,0.0
14:01:08,477551.0,0.0,0.0
14:01:08,477613.0,0.0,0.0
14:01:08,477566.0,0.0,0.0
14:01:08,477604.0,0.0,0.0
14:01:08,477544.0,0.0,0.0
14:01:08,477532.0,0.0,0.0
14:01:09,477562.0,0.0,0.0
14:01:09,477438.0,0.0,0.0
14:01:09,477410.0,0.0,0.0
14:01:09,477341.0,0.0,0.0
14:01:09,477276.0,0.0,0.0
14:01:09,477301.0,0.0,0.0
14:01:09,477231.0,0.0,0.0
14:01:09,477243.0,0.0,0.0
14:01:09,477204.0,0.0,0.0
14:01:09,477185.0,0.0,0.0
14:01:09,477255.0,0.0,0.0
14:01:09,477203.0,0.0,0.0
14:01:09,477307.0,0.0,0.0
14:01:09,477383.0,0.0,0.0
14:01:09,477432.0,0.0,0.0
14:01:09,477550.0,0.0,0.0
14:01:09,477533.0,0.0,0.0
14:01:09,477670.0,0.0,0.0
14:01:09,477716.0,0.0,0.0
14:01:09,477778.0,0.0,0.0
14:01:09,477931.0,0.0,0.0
14:01:09,477942.0,0.0,0.0
14:01:09,478086.0,0.0,0.0
14:01:09,478185.0,0.0,0.0
14:01:09,478320.0,0.0,0.0
14:01:09,478447.0,0.0,0.0
14:01:09,478460.0,0.0,0.0
14:01:09,478604.0,0.0,0.0
14:01:09,478618.0,0.0,0.0
14:01:09,478640.0,0.0,0.0
14:01:09,478738.0,0.0,0.0
14:01:09,478781.0,0.0,0.0
14:01:09,478956.0,0.0,0.0
14:01:09,478972.0,0.0,0.0
14:01:09,478899.0,0.0,0.0
14:01:09,478801.0,0.0,0.0
14:01:09,478653.0,0.0,0.0
14:01:09,478704.0,0.0,0.0
14:01:09,478672.0,0.0,0.0
14:01:09,478702.0,0.0,0.0
14:01:09,478773.0,0.0,0.0
14:01:09,478701.0,0.0,0.0
14:01:09,478796.0,0.0,0.0
14:01:09,478761.0,0.0,0.0
14:01:09,478791.0,0.0,0.0
14:01:09,478841.0,0.0,0.0
14:01:09,478757.0,0.0,0.0
14:01:09,478830.0,0.0,0.0
14:01:09,478719.0,0.0,0.0
14:01:09,478644.0,0.0,0.0
14:01:09,478670.0,0.0,0.0
14:01:09,478511.0,0.0,0.0
14:01:09,478520.0,0.0,0.0
14:01:09,478323.0,0.0,0.0
14:01:09,478277.0,0.0,0.0
14:01:09,478253.0,0.0,0.0
14:01:09,478068.0,0.0,0.0
14:01:09,478136.0,0.0,0.0
14:01:09,477951.0,0.0,0.0
14:01:09,477904.0,0.0,0.0
14:01:09,477819.0,0.0,0.0
14:01:09,477679.0,0.0,0.0
14:01:09,477746.0,0.0,0.0
14:01:09,477626.0,0.0,0.0
14:01:09,477670.0,0.0,0.0
14:01:09,477733.0,0.0,0.0
14:01:09,477643.0,0.0,0.0
14:01:09,477704.0,0.0,0.0
14:01:09,477626.0,0.0,0.0
14:01:09,477626.0,0.0,0.0
14:01:09,477664.0,0.0,0.0
14:01:09,477519.0,0.0,0.0
14:01:09,477471.0,0.0,0.0
14:01:09,477304.0,0.0,0.0
14:01:09,477221.0,0.0,0.0
14:01:09,477192.0,0.0,0.0
14:01:09,477061.0,0.0,0.0
14:01:09,477069.0,0.0,0.0
14:01:09,476981.0,0.0,0.0
14:01:09,476809.0,0.0,0.0
14:01:09,476820.0,0.0,0.0
14:01:09,476774.0,0.0,0.0
14:01:09,476788.0,0.0,0.0
14:01:09,476786.0,0.0,0.0
14:01:09,476661.0,0.0,0.0
14:01:09,476658.0,0.0,0.0
14:01:09,476462.0,0.0,0.0
14:01:09,476354.0,0.0,0.0
14:01:09,476339.0,0.0,0.0
14:01:09,476276.0,0.0,0.0
14:01:09,476304.0,0.0,0.0
14:01:09,476220.0,0.0,0.0
14:01:09,476233.0,0.0,0.0
14:01:09,476221.0,0.0,0.0
14:01:09,476148.0,0.0,0.0
14:01:09,476215.0,0.0,0.0
14:01:09,476174.0,0.0,0.0
14:01:09,476246.0,0.0,0.0
14:01:09,476231.0,0.0,0.0
14:01:09,476176.0,0.0,0.0
14:01:09,476177.0,0.0,0.0
14:01:09,476056.0,0.0,0.0
14:01:09,476181.0,0.0,0.0
14:01:09,476323.0,0.0,0.0
14:01:09,476379.0,0.0,0.0
14:01:09,476526.0,0.0,0.0
14:01:09,476396.0,0.0,0.0
14:01:09,476340.0,0.0,0.0
14:01:09,476300.0,0.0,0.0
14:01:09,476361.0,0.0,0.0
14:01:09,476498.0,0.0,0.0
14:01:09,476453.0,0.0,0.0
14:01:09,476534.0,0.0,0.0
14:01:09,476457.0,0.0,0.0
14:01:09,476493.0,0.0,0.0
14:01:09,476661.0,0.0,0.0
14:01:09,476644.0,0.0,0.0
14:01:09,476756.0,0.0,0.0
14:01:09,476688.0,0.0,0.0
14:01:09,476668.0,0.0,0.0
14:01:09,476732.0,0.0,0.0
14:01:09,476626.0,0.0,0.0
14:01:09,476739.0,0.0,0.0
14:01:09,476712.0,0.0,0.0
14:01:09,476733.0,0.0,0.0
14:01:10,476873.0,0.0,0.0
14:01:10,476873.0,0.0,0.0
14:01:10,477050.0,0.0,0.0
14:01:10,477086.0,0.0,0.0
14:01:10,477104.0,0.0,0.0
14:01:10,477187.0,0.0,0.0
14:01:10,477109.0,0.0,0.0
14:01:10,477156.0,0.0,0.0
14:01:10,477084.0,0.0,0.0
14:01:10,477054.0,0.0,0.0
14:01:10,477136.0,0.0,0.0
14:01:10,477058.0,0.0,0.0
14:01:10,477214.0,0.0,0.0
14:01:10,477219.0,0.0,0.0
14:01:10,477301.0,0.0,0.0
14:01:10,477527.0,0.0,0.0
14:01:10,477536.0,0.0,0.0
14:01:10,477659.0,0.0,0.0
14:01:10,477664.0,0.0,0.0
14:01:10,477621.0,0.0,0.0
14:01:10,477566.0,0.0,0.0
14:01:10,477328.0,0.0,0.0
14:01:10,477221.0,0.0,0.0
14:01:10,477071.0,0.0,0.0
14:01:10,476918.0,0.0,0.0
14:01:10,476909.0,0.0,0.0
14:01:10,476759.0,0.0,0.0
14:01:10,476754.0,0.0,0.0
14:01:10,476622.0,0.0,0.0
14:01:10,476525.0,0.0,0.0
14:01:10,476608.0,0.0,0.0
14:01:10,476573.0,0.0,0.0
14:01:10,476612.0,0.0,0.0
14:01:10,476598.0,0.0,0.0
14:01:10,476548.0,0.0,0.0
14:01:10,476589.0,0.0,0.0
14:01:10,476551.0,0.0,0.0
14:01:10,476666.0,0.0,0.0
14:01:10,476703.0,0.0,0.0
14:01:10,476723.0,0.0,0.0
14:01:10,476728.0,0.0,0.0
14:01:10,476648.0,0.0,0.0
14:01:10,476719.0,0.0,0.0
14:01:10,476743.0,0.0,0.0
14:01:10,476801.0,0.0,0.0
14:01:10,476928.0,0.0,0.0
14:01:10,476906.0,0.0,0.0
14:01:10,476949.0,0.0,0.0
14:01:10,476859.0,0.0,0.0
14:01:10,476842.0,0.0,0.0
14:01:10,477000.0,0.0,0.0
14:01:10,477023.0,0.0,0.0
14:01:10,477273.0,0.0,0.0
14:01:10,477248.0,0.0,0.0
14:01:10,476944.0,0.0,0.0
14:01:10,476859.0,0.0,0.0
14:01:10,476762.0,0.0,0.0
14:01:10,476852.0,0.0,0.0
14:01:10,476788.0,0.0,0.0
14:01:10,476759.0,0.0,0.0
14:01:10,476728.0,0.0,0.0
14:01:10,476493.0,0.0,0.0
14:01:10,476549.0,0.0,0.0
14:01:10,476478.0,0.0,0.0
14:01:10,476382.0,0.0,0.0
14:01:10,476370.0,0.0,0.0
14:01:10,476166.0,0.0,0.0
14:01:10,476123.0,0.0,0.0
14:01:10,475966.0,0.0,0.0
14:01:10,475824.0,0.0,0.0
14:01:10,475798.0,0.0,0.0
14:01:10,475558.0,0.0,0.0
14:01:10,475414.0,0.0,0.0
14:01:10,475228.0,0.0,0.0
14:01:10,475109.0,0.0,0.0
14:01:10,475071.0,0.0,0.0
14:01:10,474876.0,0.0,0.0
14:01:10,474830.0,0.0,0.0
14:01:10,474664.0,0.0,0.0
14:01:10,474496.0,0.0,0.0
14:01:10,474418.0,0.0,0.0
14:01:10,474188.0,0.0,0.0
14:01:10,474200.0,0.0,0.0
14:01:10,474126.0,0.0,0.0
14:01:10,474056.0,0.0,0.0
14:01:10,474118.0,0.0,0.0
14:01:10,474043.0,0.0,0.0
14:01:10,474187.0,0.0,0.0
14:01:10,474275.0,0.0,0.0
14:01:10,474343.0,0.0,0.0
14:01:10,474513.0,0.0,0.0
14:01:10,474469.0,0.0,0.0
14:01:10,474469.0,0.0,0.0
14:01:10,474373.0,0.0,0.0
14:01:10,474299.0,0.0,0.0
14:01:10,474303.0,0.0,0.0
14:01:10,474133.0,0.0,0.0
14:01:10,474172.0,0.0,0.0
14:01:10,474108.0,0.0,0.0
14:01:10,473959.0,0.0,0.0
14:01:10,473911.0,0.0,0.0
14:01:10,473779.0,0.0,0.0
14:01:10,473741.0,0.0,0.0
14:01:10,473644.0,0.0,0.0
14:01:10,473533.0,0.0,0.0
14:01:10,473499.0,0.0,0.0
14:01:10,473431.0,0.0,0.0
14:01:10,473479.0,0.0,0.0
14:01:10,473489.0,0.0,0.0
14:01:10,473449.0,0.0,0.0
14:01:10,473496.0,0.0,0.0
14:01:10,473443.0,0.0,0.0
14:01:10,473489.0,0.0,0.0
14:01:10,473518.0,0.0,0.0
14:01:10,473493.0,0.0,0.0
14:01:10,473514.0,0.0,0.0
14:01:10,473414.0,0.0,0.0
14:01:10,473461.0,0.0,0.0
14:01:10,473443.0,0.0,0.0
14:01:10,473383.0,0.0,0.0
14:01:10,473403.0,0.0,0.0
14:01:10,473319.0,0.0,0.0
14:01:10,473294.0,0.0,0.0
14:01:10,473234.0,0.0,0.0
14:01:10,473273.0,0.0,0.0
14:01:11,473507.0,0.0,0.0
14:01:11,473679.0,0.0,0.0
14:01:11,473569.0,0.0,0.0
14:01:11,473398.0,0.0,0.0
14:01:11,473339.0,0.0,0.0
14:01:11,473428.0,0.0,0.0
14:01:11,473400.0,0.0,0.0
14:01:11,473435.0,0.0,0.0
14:01:11,473497.0,0.0,0.0
14:01:11,473475.0,0.0,0.0
14:01:11,473574.0,0.0,0.0
14:01:11,473559.0,0.0,0.0
14:01:11,473664.0,0.0,0.0
14:01:11,473695.0,0.0,0.0
14:01:11,473662.0,0.0,0.0
14:01:11,473768.0,0.0,0.0
14:01:11,473765.0,0.0,0.0
14:01:11,473853.0,0.0,0.0
14:01:11,473911.0,0.0,0.0
14:01:11,473892.0,0.0,0.0
14:01:11,474004.0,0.0,0.0
14:01:11,473938.0,0.0,0.0
14:01:11,474027.0,0.0,0.0
14:01:11,474052.0,0.0,0.0
14:01:11,473969.0,0.0,0.0
14:01:11,473969.0,0.0,0.0
14:01:11,473766.0,0.0,0.0
14:01:11,473731.0,0.0,0.0
14:01:11,473644.0,0.0,0.0
14:01:11,473549.0,0.0,0.0
14:01:11,473654.0,0.0,0.0
14:01:11,473525.0,0.0,0.0
14:01:11,473589.0,0.0,0.0
14:01:11,473605.0,0.0,0.0
14:01:11,473653.0,0.0,0.0
14:01:11,473871.0,0.0,0.0
14:01:11,473863.0,0.0,0.0
14:01:11,474023.0,0.0,0.0
14:01:11,474136.0,0.0,0.0
14:01:11,474209.0,0.0,0.0
14:01:11,474317.0,0.0,0.0
14:01:11,474479.0,0.0,0.0
14:01:11,474921.0,0.0,0.0
14:01:11,474999.0,0.0,0.0
14:01:11,474948.0,0.0,0.0
14:01:11,475106.0,0.0,0.0
14:01:11,475103.0,0.0,0.0
14:01:11,475230.0,0.0,0.0
14:01:11,475316.0,0.0,0.0
14:01:11,475376.0,0.0,0.0
14:01:11,475588.0,0.0,0.0
14:01:11,475618.0,0.0,0.0
14:01:11,475752.0,0.0,0.0
14:01:11,475820.0,0.0,0.0
14:01:11,475834.0,0.0,0.0
14:01:11,475980.0,0.0,0.0
14:01:11,475980.0,0.0,0.0
14:01:11,476025.0,0.0,0.0
14:01:11,476123.0,0.0,0.0
14:01:11,476109.0,0.0,0.0
14:01:11,476188.0,0.0,0.0
14:01:11,476166.0,0.0,0.0
14:01:11,476189.0,0.0,0.0
14:01:11,476163.0,0.0,0.0
14:01:11,476109.0,0.0,0.0
14:01:11,476193.0,0.0,0.0
14:01:11,476166.0,0.0,0.0
14:01:11,476241.0,0.0,0.0
14:01:11,476160.0,0.0,0.0
14:01:11,476078.0,0.0,0.0
14:01:11,476138.0,0.0,0.0
14:01:11,476026.0,0.0,0.0
14:01:11,476050.0,0.0,0.0
14:01:11,475949.0,0.0,0.0
14:01:11,475846.0,0.0,0.0
14:01:11,476006.0,0.0,0.0
14:01:11,476013.0,0.0,0.0
14:01:11,476180.0,0.0,0.0
14:01:11,476194.0,0.0,0.0
14:01:11,475991.0,0.0,0.0
14:01:11,475960.0,0.0,0.0
14:01:11,475805.0,0.0,0.0
14:01:11,475896.0,0.0,0.0
14:01:11,475817.0,0.0,0.0
14:01:11,475719.0,0.0,0.0
14:01:11,475714.0,0.0,0.0
14:01:11,475503.0,0.0,0.0
14:01:11,475558.0,0.0,0.0
14:01:11,475499.0,0.0,0.0
14:01:11,475424.0,0.0,0.0
14:01:11,475434.0,0.0,0.0
14:01:11,475256.0,0.0,0.0
14:01:11,475288.0,0.0,0.0
14:01:11,475227.0,0.0,0.0
14:01:11,475134.0,0.0,0.0
14:01:11,475201.0,0.0,0.0
14:01:11,475076.0,0.0,0.0
14:01:11,475085.0,0.0,0.0
14:01:11,475012.0,0.0,0.0
14:01:11,474940.0,0.0,0.0
14:01:11,475065.0,0.0,0.0
14:01:11,475032.0,0.0,0.0
14:01:11,475110.0,0.0,0.0
14:01:11,475126.0,0.0,0.0
14:01:11,475112.0,0.0,0.0
14:01:11,475177.0,0.0,0.0
14:01:11,475133.0,0.0,0.0
14:01:11,475180.0,0.0,0.0
14:01:11,475226.0,0.0,0.0
14:01:11,475161.0,0.0,0.0
14:01:11,475204.0,0.0,0.0
14:01:11,475152.0,0.0,0.0
14:01:11,475173.0,0.0,0.0
14:01:11,475229.0,0.0,0.0
14:01:11,475191.0,0.0,0.0
14:01:11,475251.0,0.0,0.0
14:01:11,475193.0,0.0,0.0
14:01:11,475204.0,0.0,0.0
14:01:11,475193.0,0.0,0.0
14:01:11,475103.0,0.0,0.0
14:01:11,475186.0,0.0,0.0
14:01:11,475101.0,0.0,0.0
14:01:11,475066.0,0.0,0.0
14:01:11,475168.0,0.0,0.0
14:01:11,475090.0,0.0,0.0
14:01:12,475198.0,0.0,0.0
14:01:12,475203.0,0.0,0.0
14:01:12,475228.0,0.0,0.0
14:01:12,475214.0,0.0,0.0
14:01:12,475118.0,0.0,0.0
14:01:12,475241.0,0.0,0.0
14:01:12,475239.0,0.0,0.0
14:01:12,475270.0,0.0,0.0
14:01:12,475340.0,0.0,0.0
14:01:12,475322.0,0.0,0.0
14:01:12,475355.0,0.0,0.0
14:01:12,475324.0,0.0,0.0
14:01:12,475261.0,0.0,0.0
14:01:12,475368.0,0.0,0.0
14:01:12,475599.0,0.0,0.0
14:01:12,475534.0,0.0,0.0
14:01:12,475388.0,0.0,0.0
14:01:12,475415.0,0.0,0.0
14:01:12,475384.0,0.0,0.0
14:01:12,475318.0,0.0,0.0
14:01:12,475359.0,0.0,0.0
14:01:12,475306.0,0.0,0.0
14:01:12,475377.0,0.0,0.0
14:01:12,475393.0,0.0,0.0
14:01:12,475389.0,0.0,0.0
14:01:12,475518.0,0.0,0.0
14:01:12,475433.0,0.0,0.0
14:01:12,475359.0,0.0,0.0
14:01:12,475303.0,0.0,0.0
14:01:12,475306.0,0.0,0.0
14:01:12,475408.0,0.0,0.0
14:01:12,475390.0,0.0,0.0
14:01:12,475449.0,0.0,0.0
14:01:12,475460.0,0.0,0.0
14:01:12,475436.0,0.0,0.0
14:01:12,475714.0,0.0,0.0
14:01:12,475825.0,0.0,0.0
14:01:12,475774.0,0.0,0.0
14:01:12,475704.0,0.0,0.0
14:01:12,475579.0,0.0,0.0
14:01:12,475693.0,0.0,0.0
14:01:12,475508.0,0.0,0.0
14:01:12,475578.0,0.0,0.0
14:01:12,475728.0,0.0,0.0
14:01:12,475627.0,0.0,0.0
14:01:12,475724.0,0.0,0.0
14:01:12,475676.0,0.0,0.0
14:01:12,475754.0,0.0,0.0
14:01:12,475856.0,0.0,0.0
14:01:12,475806.0,0.0,0.0
14:01:12,475869.0,0.0,0.0
14:01:12,475873.0,0.0,0.0
14:01:12,476070.0,0.0,0.0
14:01:12,476163.0,0.0,0.0
14:01:12,476178.0,0.0,0.0
14:01:12,476294.0,0.0,0.0
14:01:12,476307.0,0.0,0.0
14:01:12,476525.0,0.0,0.0
14:01:12,476581.0,0.0,0.0
14:01:12,476559.0,0.0,0.0
14:01:12,476673.0,0.0,0.0
14:01:12,476775.0,0.0,0.0
14:01:12,476904.0,0.0,0.0
14:01:12,477017.0,0.0,0.0
14:01:12,477030.0,0.0,0.0
14:01:12,477169.0,0.0,0.0
14:01:12,477285.0,0.0,0.0
14:01:12,477275.0,0.0,0.0
14:01:12,477377.0,0.0,0.0
14:01:12,477276.0,0.0,0.0
14:01:12,477417.0,0.0,0.0
14:01:12,477763.0,0.0,0.0
14:01:12,477764.0,0.0,0.0
14:01:12,477763.0,0.0,0.0
14:01:12,477862.0,0.0,0.0
14:01:12,478006.0,0.0,0.0
14:01:12,477934.0,0.0,0.0
14:01:12,478066.0,0.0,0.0
14:01:12,478134.0,0.0,0.0
14:01:12,478273.0,0.0,0.0
14:01:12,478525.0,0.0,0.0
14:01:12,478476.0,0.0,0.0
14:01:12,478536.0,0.0,0.0
14:01:12,478559.0,0.0,0.0
14:01:12,478641.0,0.0,0.0
14:01:12,478842.0,0.0,0.0
14:01:12,478789.0,0.0,0.0
14:01:12,478911.0,0.0,0.0
14:01:12,478869.0,0.0,0.0
14:01:12,478844.0,0.0,0.0
14:01:12,478952.0,0.0,0.0
14:01:12,478861.0,0.0,0.0
14:01:12,478965.0,0.0,0.0
14:01:12,478970.0,0.0,0.0
14:01:12,478940.0,0.0,0.0
14:01:12,479113.0,0.0,0.0
14:01:12,479105.0,0.0,0.0
14:01:12,479214.0,0.0,0.0
14:01:12,479273.0,0.0,0.0
14:01:12,479144.0,0.0,0.0
14:01:12,479146.0,0.0,0.0
14:01:12,478974.0,0.0,0.0
14:01:12,478978.0,0.0,0.0
14:01:12,479002.0,0.0,0.0
14:01:12,478866.0,0.0,0.0
14:01:12,478868.0,0.0,0.0
14:01:12,478689.0,0.0,0.0
14:01:12,478519.0,0.0,0.0
14:01:12,478516.0,0.0,0.0
14:01:12,478610.0,0.0,0.0
14:01:12,478579.0,0.0,0.0
14:01:12,478365.0,0.0,0.0
14:01:12,478371.0,0.0,0.0
14:01:12,478393.0,0.0,0.0
14:01:12,478364.0,0.0,0.0
14:01:12,478378.0,0.0,0.0
14:01:12,478249.0,0.0,0.0
14:01:12,478198.0,0.0,0.0
14:01:12,478158.0,0.0,0.0
14:01:12,477996.0,0.0,0.0
14:01:12,478024.0,0.0,0.0
14:01:12,477875.0,0.0,0.0
14:01:12,477800.0,0.0,0.0
14:01:12,477748.0,0.0,0.0
14:01:12,477623.0,0.0,0.0
14:01:13,477598.0,0.0,0.0
14:01:13,477508.0,0.0,0.0
14:01:13,477436.0,0.0,0.0
14:01:13,477386.0,0.0,0.0
14:01:13,477289.0,0.0,0.0
14:01:13,477276.0,0.0,0.0
14:01:13,477104.0,0.0,0.0
14:01:13,477059.0,0.0,0.0
14:01:13,477099.0,0.0,0.0
14:01:13,476926.0,0.0,0.0
14:01:13,476923.0,0.0,0.0
14:01:13,476821.0,0.0,0.0
14:01:13,476812.0,0.0,0.0
14:01:13,476836.0,0.0,0.0
14:01:13,476771.0,0.0,0.0
14:01:13,476803.0,0.0,0.0
14:01:13,476771.0,0.0,0.0
14:01:13,476791.0,0.0,0.0
14:01:13,476719.0,0.0,0.0
14:01:13,476814.0,0.0,0.0
14:01:13,477004.0,0.0,0.0
14:01:13,476841.0,0.0,0.0
14:01:13,476709.0,0.0,0.0
14:01:13,476605.0,0.0,0.0
14:01:13,476446.0,0.0,0.0
14:01:13,476628.0,0.0,0.0
14:01:13,476792.0,0.0,0.0
14:01:13,476768.0,0.0,0.0
14:01:13,476656.0,0.0,0.0
14:01:13,476537.0,0.0,0.0
14:01:13,476584.0,0.0,0.0
14:01:13,476568.0,0.0,0.0
14:01:13,476651.0,0.0,0.0
14:01:13,476653.0,0.0,0.0
14:01:13,476519.0,0.0,0.0
14:01:13,476537.0,0.0,0.0
14:01:13,476481.0,0.0,0.0
14:01:13,476472.0,0.0,0.0
14:01:13,476481.0,0.0,0.0
14:01:13,476364.0,0.0,0.0
14:01:13,476315.0,0.0,0.0
14:01:13,476347.0,0.0,0.0
14:01:13,476532.0,0.0,0.0
14:01:13,476774.0,0.0,0.0
14:01:13,476716.0,0.0,0.0
14:01:13,476589.0,0.0,0.0
14:01:13,476484.0,0.0,0.0
14:01:13,476423.0,0.0,0.0
14:01:13,476548.0,0.0,0.0
14:01:13,476522.0,0.0,0.0
14:01:13,476524.0,0.0,0.0
14:01:13,476547.0,0.0,0.0
14:01:13,476609.0,0.0,0.0
14:01:13,476660.0,0.0,0.0
14:01:13,476654.0,0.0,0.0
14:01:13,476776.0,0.0,0.0
14:01:13,476711.0,0.0,0.0
14:01:13,476752.0,0.0,0.0
14:01:13,476941.0,0.0,0.0
14:01:13,476986.0,0.0,0.0
14:01:13,477038.0,0.0,0.0
14:01:13,476948.0,0.0,0.0
14:01:13,476914.0,0.0,0.0
14:01:13,476907.0,0.0,0.0
14:01:13,476848.0,0.0,0.0
14:01:13,476926.0,0.0,0.0
14:01:13,476834.0,0.0,0.0
14:01:13,476821.0,0.0,0.0
14:01:13,476827.0,0.0,0.0
14:01:13,476752.0,0.0,0.0
14:01:13,476802.0,0.0,0.0
14:01:13,476786.0,0.0,0.0
14:01:13,476844.0,0.0,0.0
14:01:13,476908.0,0.0,0.0
14:01:13,476857.0,0.0,0.0
14:01:13,476846.0,0.0,0.0
14:01:13,476764.0,0.0,0.0
14:01:13,476720.0,0.0,0.0
14:01:13,476701.0,0.0,0.0
14:01:13,476587.0,0.0,0.0
14:01:13,476565.0,0.0,0.0
14:01:13,476489.0,0.0,0.0
14:01:13,476387.0,0.0,0.0
14:01:13,476346.0,0.0,0.0
14:01:13,476208.0,0.0,0.0
14:01:13,476180.0,0.0,0.0
14:01:13,476057.0,0.0,0.0
14:01:13,475974.0,0.0,0.0
14:01:13,475954.0,0.0,0.0
14:01:13,475790.0,0.0,0.0
14:01:13,475734.0,0.0,0.0
14:01:13,475658.0,0.0,0.0
14:01:13,475573.0,0.0,0.0
14:01:13,475514.0,0.0,0.0
14:01:13,475321.0,0.0,0.0
14:01:13,475241.0,0.0,0.0
14:01:13,475136.0,0.0,0.0
14:01:13,475061.0,0.0,0.0
14:01:13,475087.0,0.0,0.0
14:01:13,474923.0,0.0,0.0
14:01:13,474865.0,0.0,0.0
14:01:13,474707.0,0.0,0.0
14:01:13,474521.0,0.0,0.0
14:01:13,474476.0,0.0,0.0
14:01:13,474344.0,0.0,0.0
14:01:13,474347.0,0.0,0.0
14:01:13,474260.0,0.0,0.0
14:01:13,474160.0,0.0,0.0
14:01:13,474179.0,0.0,0.0
14:01:13,474027.0,0.0,0.0
14:01:13,473932.0,0.0,0.0
14:01:13,473948.0,0.0,0.0
14:01:13,474039.0,0.0,0.0
14:01:13,474194.0,0.0,0.0
14:01:13,474219.0,0.0,0.0
14:01:13,474184.0,0.0,0.0
14:01:13,474231.0,0.0,0.0
14:01:13,474389.0,0.0,0.0
14:01:13,474345.0,0.0,0.0
14:01:13,473958.0,0.0,0.0
14:01:13,474126.0,0.0,0.0
14:01:13,474223.0,0.0,0.0
14:01:13,474159.0,0.0,0.0
14:01:13,474225.0,0.0,0.0
14:01:13,474161.0,0.0,0.0
14:01:14,474212.0,0.0,0.0
14:01:14,474161.0,0.0,0.0
14:01:14,474096.0,0.0,0.0
14:01:14,474108.0,0.0,0.0
14:01:14,473998.0,0.0,0.0
14:01:14,474062.0,0.0,0.0
14:01:14,473984.0,0.0,0.0
14:01:14,473942.0,0.0,0.0
14:01:14,474015.0,0.0,0.0
14:01:14,473939.0,0.0,0.0
14:01:14,474014.0,0.0,0.0
14:01:14,474021.0,0.0,0.0
14:01:14,474078.0,0.0,0.0
14:01:14,474274.0,0.0,0.0
14:01:14,474252.0,0.0,0.0
14:01:14,474239.0,0.0,0.0
14:01:14,474178.0,0.0,0.0
14:01:14,474213.0,0.0,0.0
14:01:14,474272.0,0.0,0.0
14:01:14,474157.0,0.0,0.0
14:01:14,474148.0,0.0,0.0
14:01:14,474054.0,0.0,0.0
14:01:14,473952.0,0.0,0.0
14:01:14,473951.0,0.0,0.0
14:01:14,473836.0,0.0,0.0
14:01:14,473804.0,0.0,0.0
14:01:14,473742.0,0.0,0.0
14:01:14,473626.0,0.0,0.0
14:01:14,473639.0,0.0,0.0
14:01:14,473507.0,0.0,0.0
14:01:14,473508.0,0.0,0.0
14:01:14,473461.0,0.0,0.0
14:01:14,473396.0,0.0,0.0
14:01:14,473366.0,0.0,0.0
14:01:14,473232.0,0.0,0.0
14:01:14,473290.0,0.0,0.0
14:01:14,473278.0,0.0,0.0
14:01:14,473180.0,0.0,0.0
14:01:14,473189.0,0.0,0.0
14:01:14,473073.0,0.0,0.0
14:01:14,473048.0,0.0,0.0
14:01:14,472999.0,0.0,0.0
14:01:14,472929.0,0.0,0.0
14:01:14,472986.0,0.0,0.0
14:01:14,472873.0,0.0,0.0
14:01:14,472920.0,0.0,0.0
14:01:14,472974.0,0.0,0.0
14:01:14,472947.0,0.0,0.0
14:01:14,472958.0,0.0,0.0
14:01:14,472793.0,0.0,0.0
14:01:14,472772.0,0.0,0.0
14:01:14,472751.0,0.0,0.0
14:01:14,472671.0,0.0,0.0
14:01:14,472698.0,0.0,0.0
14:01:14,472549.0,0.0,0.0
14:01:14,472599.0,0.0,0.0
14:01:14,472790.0,0.0,0.0
14:01:14,472888.0,0.0,0.0
14:01:14,473018.0,0.0,0.0
14:01:14,472765.0,0.0,0.0
14:01:14,472632.0,0.0,0.0
14:01:14,472513.0,0.0,0.0
14:01:14,472480.0,0.0,0.0
14:01:14,472603.0,0.0,0.0
14:01:14,472563.0,0.0,0.0
14:01:14,472670.0,0.0,0.0
14:01:14,472624.0,0.0,0.0
14:01:14,472456.0,0.0,0.0
14:01:14,472427.0,0.0,0.0
14:01:14,472299.0,0.0,0.0
14:01:14,472262.0,0.0,0.0
14:01:14,472209.0,0.0,0.0
14:01:14,472131.0,0.0,0.0
14:01:14,472161.0,0.0,0.0
14:01:14,472033.0,0.0,0.0
14:01:14,472061.0,0.0,0.0
14:01:14,472038.0,0.0,0.0
14:01:14,471952.0,0.0,0.0
14:01:14,472006.0,0.0,0.0
14:01:14,471950.0,0.0,0.0
14:01:14,471913.0,0.0,0.0
14:01:14,471884.0,0.0,0.0
14:01:14,471828.0,0.0,0.0
14:01:14,471851.0,0.0,0.0
14:01:14,471758.0,0.0,0.0
14:01:14,471721.0,0.0,0.0
14:01:14,471726.0,0.0,0.0
14:01:14,471701.0,0.0,0.0
14:01:14,471713.0,0.0,0.0
14:01:14,471663.0,0.0,0.0
14:01:14,471688.0,0.0,0.0
14:01:14,471753.0,0.0,0.0
14:01:14,471750.0,0.0,0.0
14:01:14,471762.0,0.0,0.0
14:01:14,471682.0,0.0,0.0
14:01:14,471691.0,0.0,0.0
14:01:14,471703.0,0.0,0.0
14:01:14,471556.0,0.0,0.0
14:01:14,471598.0,0.0,0.0
14:01:14,471573.0,0.0,0.0
14:01:14,471648.0,0.0,0.0
14:01:14,471618.0,0.0,0.0
14:01:14,471538.0,0.0,0.0
14:01:14,471570.0,0.0,0.0
14:01:14,471524.0,0.0,0.0
14:01:14,471569.0,0.0,0.0
14:01:14,471563.0,0.0,0.0
14:01:14,471500.0,0.0,0.0
14:01:14,471501.0,0.0,0.0
14:01:14,471425.0,0.0,0.0
14:01:14,471418.0,0.0,0.0
14:01:14,471428.0,0.0,0.0
14:01:14,471431.0,0.0,0.0
14:01:14,471523.0,0.0,0.0
14:01:14,471409.0,0.0,0.0
14:01:14,471426.0,0.0,0.0
14:01:14,471406.0,0.0,0.0
14:01:14,471374.0,0.0,0.0
14:01:14,471393.0,0.0,0.0
14:01:14,471286.0,0.0,0.0
14:01:14,471336.0,0.0,0.0
14:01:14,471251.0,0.0,0.0
14:01:14,471141.0,0.0,0.0
14:01:14,471109.0,0.0,0.0
14:01:14,471034.0,0.0,0.0
14:01:15,471253.0,0.0,0.0
14:01:15,471379.0,0.0,0.0
14:01:15,471428.0,0.0,0.0
14:01:15,471436.0,0.0,0.0
14:01:15,471209.0,0.0,0.0
14:01:15,471157.0,0.0,0.0
14:01:15,471125.0,0.0,0.0
14:01:15,471083.0,0.0,0.0
14:01:15,471138.0,0.0,0.0
14:01:15,471079.0,0.0,0.0
14:01:15,471158.0,0.0,0.0
14:01:15,471198.0,0.0,0.0
14:01:15,471168.0,0.0,0.0
14:01:15,471216.0,0.0,0.0
14:01:15,471111.0,0.0,0.0
14:01:15,471106.0,0.0,0.0
14:01:15,471065.0,0.0,0.0
14:01:15,471010.0,0.0,0.0
14:01:15,471086.0,0.0,0.0
14:01:15,471070.0,0.0,0.0
14:01:15,471144.0,0.0,0.0
14:01:15,471130.0,0.0,0.0
14:01:15,471093.0,0.0,0.0
14:01:15,471118.0,0.0,0.0
14:01:15,471089.0,0.0,0.0
14:01:15,471129.0,0.0,0.0
14:01:15,471171.0,0.0,0.0
14:01:15,471145.0,0.0,0.0
14:01:15,471271.0,0.0,0.0
14:01:15,471259.0,0.0,0.0
14:01:15,471374.0,0.0,0.0
14:01:15,471454.0,0.0,0.0
14:01:15,471461.0,0.0,0.0
14:01:15,471508.0,0.0,0.0
14:01:15,471478.0,0.0,0.0
14:01:15,471526.0,0.0,0.0
14:01:15,471560.0,0.0,0.0
14:01:15,471553.0,0.0,0.0
14:01:15,471683.0,0.0,0.0
14:01:15,471652.0,0.0,0.0
14:01:15,471643.0,0.0,0.0
14:01:15,471645.0,0.0,0.0
14:01:15,471574.0,0.0,0.0
14:01:15,471614.0,0.0,0.0
14:01:15,471553.0,0.0,0.0
14:01:15,471621.0,0.0,0.0
14:01:15,471713.0,0.0,0.0
14:01:15,471691.0,0.0,0.0
14:01:15,471748.0,0.0,0.0
14:01:15,471688.0,0.0,0.0
14:01:15,471740.0,0.0,0.0
14:01:15,471809.0,0.0,0.0
14:01:15,471763.0,0.0,0.0
14:01:15,471781.0,0.0,0.0
14:01:15,471710.0,0.0,0.0
14:01:15,471779.0,0.0,0.0
14:01:15,471732.0,0.0,0.0
14:01:15,471624.0,0.0,0.0
14:01:15,471688.0,0.0,0.0
14:01:15,471651.0,0.0,0.0
14:01:15,471613.0,0.0,0.0
14:01:15,471581.0,0.0,0.0
14:01:15,471471.0,0.0,0.0
14:01:15,471541.0,0.0,0.0
14:01:15,471492.0,0.0,0.0
14:01:15,471479.0,0.0,0.0
14:01:15,471534.0,0.0,0.0
14:01:15,471443.0,0.0,0.0
14:01:15,471486.0,0.0,0.0
14:01:15,471393.0,0.0,0.0
14:01:15,471390.0,0.0,0.0
14:01:15,471516.0,0.0,0.0
14:01:15,471692.0,0.0,0.0
14:01:15,471976.0,0.0,0.0
14:01:15,471926.0,0.0,0.0
14:01:15,471771.0,0.0,0.0
14:01:15,471703.0,0.0,0.0
14:01:15,471651.0,0.0,0.0
14:01:15,471828.0,0.0,0.0
14:01:15,471784.0,0.0,0.0
14:01:15,471840.0,0.0,0.0
14:01:15,471841.0,0.0,0.0
14:01:15,471834.0,0.0,0.0
14:01:15,471946.0,0.0,0.0
14:01:15,471881.0,0.0,0.0
14:01:15,471957.0,0.0,0.0
14:01:15,471961.0,0.0,0.0
14:01:15,471892.0,0.0,0.0
14:01:15,471920.0,0.0,0.0
14:01:15,471850.0,0.0,0.0
14:01:15,471972.0,0.0,0.0
14:01:15,472043.0,0.0,0.0
14:01:15,472038.0,0.0,0.0
14:01:15,472156.0,0.0,0.0
14:01:15,472108.0,0.0,0.0
14:01:15,472169.0,0.0,0.0
14:01:15,472198.0,0.0,0.0
14:01:15,472210.0,0.0,0.0
14:01:15,472322.0,0.0,0.0
14:01:15,472282.0,0.0,0.0
14:01:15,472331.0,0.0,0.0
14:01:15,472302.0,0.0,0.0
14:01:15,472290.0,0.0,0.0
14:01:15,472393.0,0.0,0.0
14:01:15,472323.0,0.0,0.0
14:01:15,472331.0,0.0,0.0
14:01:15,472348.0,0.0,0.0
14:01:15,472337.0,0.0,0.0
14:01:15,472441.0,0.0,0.0
14:01:15,472416.0,0.0,0.0
14:01:15,472463.0,0.0,0.0
14:01:15,472441.0,0.0,0.0
14:01:15,472355.0,0.0,0.0
14:01:15,472438.0,0.0,0.0
14:01:15,472473.0,0.0,0.0
14:01:15,472557.0,0.0,0.0
14:01:15,472574.0,0.0,0.0
14:01:15,472527.0,0.0,0.0
14:01:15,472603.0,0.0,0.0
14:01:15,472569.0,0.0,0.0
14:01:15,472589.0,0.0,0.0
14:01:15,472610.0,0.0,0.0
14:01:15,472598.0,0.0,0.0
14:01:15,472721.0,0.0,0.0
14:01:15,472658.0,0.0,0.0
14:01:16,472651.0,0.0,0.0
14:01:16,472683.0,0.0,0.0
14:01:16,472671.0,0.0,0.0
14:01:16,472751.0,0.0,0.0
14:01:16,472708.0,0.0,0.0
14:01:16,472776.0,0.0,0.0
14:01:16,472836.0,0.0,0.0
14:01:16,472793.0,0.0,0.0
14:01:16,472873.0,0.0,0.0
14:01:16,472862.0,0.0,0.0
14:01:16,472902.0,0.0,0.0
14:01:16,472921.0,0.0,0.0
14:01:16,472881.0,0.0,0.0
14:01:16,472932.0,0.0,0.0
14:01:16,472872.0,0.0,0.0
14:01:16,472918.0,0.0,0.0
14:01:16,472893.0,0.0,0.0
14:01:16,472831.0,0.0,0.0
14:01:16,472882.0,0.0,0.0
14:01:16,472971.0,0.0,0.0
14:01:16,473317.0,0.0,0.0
14:01:16,473519.0,0.0,0.0
14:01:16,473603.0,0.0,0.0
14:01:16,473506.0,0.0,0.0
14:01:16,473383.0,0.0,0.0
14:01:16,473631.0,0.0,0.0
14:01:16,473839.0,0.0,0.0
14:01:16,473921.0,0.0,0.0
14:01:16,473957.0,0.0,0.0
14:01:16,473827.0,0.0,0.0
14:01:16,473909.0,0.0,0.0
14:01:16,473858.0,0.0,0.0
14:01:16,473887.0,0.0,0.0
14:01:16,474036.0,0.0,0.0
14:01:16,473970.0,0.0,0.0
14:01:16,474067.0,0.0,0.0
14:01:16,474108.0,0.0,0.0
14:01:16,474103.0,0.0,0.0
14:01:16,474148.0,0.0,0.0
14:01:16,474039.0,0.0,0.0
14:01:16,474126.0,0.0,0.0
14:01:16,474138.0,0.0,0.0
14:01:16,474134.0,0.0,0.0
14:01:16,474223.0,0.0,0.0
14:01:16,474172.0,0.0,0.0
14:01:16,474254.0,0.0,0.0
14:01:16,474208.0,0.0,0.0
14:01:16,474176.0,0.0,0.0
14:01:16,474258.0,0.0,0.0
14:01:16,474123.0,0.0,0.0
14:01:16,474147.0,0.0,0.0
14:01:16,474106.0,0.0,0.0
14:01:16,474103.0,0.0,0.0
14:01:16,474188.0,0.0,0.0
14:01:16,474164.0,0.0,0.0
14:01:16,474201.0,0.0,0.0
14:01:16,474162.0,0.0,0.0
14:01:16,474050.0,0.0,0.0
14:01:16,474199.0,0.0,0.0
14:01:16,474119.0,0.0,0.0
14:01:16,474154.0,0.0,0.0
14:01:16,474179.0,0.0,0.0
14:01:16,474175.0,0.0,0.0
14:01:16,474291.0,0.0,0.0
14:01:16,474207.0,0.0,0.0
14:01:16,474200.0,0.0,0.0
14:01:16,474168.0,0.0,0.0
14:01:16,474129.0,0.0,0.0
14:01:16,474209.0,0.0,0.0
14:01:16,474173.0,0.0,0.0
14:01:16,474189.0,0.0,0.0
14:01:16,474198.0,0.0,0.0
14:01:16,474179.0,0.0,0.0
14:01:16,474256.0,0.0,0.0
14:01:16,474104.0,0.0,0.0
14:01:16,474111.0,0.0,0.0
14:01:16,474042.0,0.0,0.0
14:01:16,473961.0,0.0,0.0
14:01:16,473944.0,0.0,0.0
14:01:16,473799.0,0.0,0.0
14:01:16,473814.0,0.0,0.0
14:01:16,473757.0,0.0,0.0
14:01:16,473708.0,0.0,0.0
14:01:16,473771.0,0.0,0.0
14:01:16,473635.0,0.0,0.0
14:01:16,473708.0,0.0,0.0
14:01:16,473729.0,0.0,0.0
14:01:16,473740.0,0.0,0.0
14:01:16,473829.0,0.0,0.0
14:01:16,473819.0,0.0,0.0
14:01:16,473904.0,0.0,0.0
14:01:16,473890.0,0.0,0.0
14:01:16,473909.0,0.0,0.0
14:01:16,473776.0,0.0,0.0
14:01:16,473518.0,0.0,0.0
14:01:16,473584.0,0.0,0.0
14:01:16,473805.0,0.0,0.0
14:01:16,473986.0,0.0,0.0
14:01:16,474086.0,0.0,0.0
14:01:16,473694.0,0.0,0.0
14:01:16,473381.0,0.0,0.0
14:01:16,473249.0,0.0,0.0
14:01:16,473241.0,0.0,0.0
14:01:16,473346.0,0.0,0.0
14:01:16,473338.0,0.0,0.0
14:01:16,473441.0,0.0,0.0
14:01:16,473462.0,0.0,0.0
14:01:16,473446.0,0.0,0.0
14:01:16,473606.0,0.0,0.0
14:01:16,473591.0,0.0,0.0
14:01:16,473526.0,0.0,0.0
14:01:16,473468.0,0.0,0.0
14:01:16,473333.0,0.0,0.0
14:01:16,473446.0,0.0,0.0
14:01:16,473393.0,0.0,0.0
14:01:16,473405.0,0.0,0.0
14:01:16,473396.0,0.0,0.0
14:01:16,473285.0,0.0,0.0
14:01:16,473338.0,0.0,0.0
14:01:16,473286.0,0.0,0.0
14:01:16,473344.0,0.0,0.0
14:01:16,473419.0,0.0,0.0
14:01:16,473397.0,0.0,0.0
14:01:16,473436.0,0.0,0.0
14:01:16,473385.0,0.0,0.0
14:01:17,473434.0,0.0,0.0
14:01:17,473438.0,0.0,0.0
14:01:17,473358.0,0.0,0.0
14:01:17,473375.0,0.0,0.0
14:01:17,473309.0,0.0,0.0
14:01:17,473438.0,0.0,0.0
14:01:17,473421.0,0.0,0.0
14:01:17,473376.0,0.0,0.0
14:01:17,473477.0,0.0,0.0
14:01:17,473429.0,0.0,0.0
14:01:17,473544.0,0.0,0.0
14:01:17,473563.0,0.0,0.0
14:01:17,473515.0,0.0,0.0
14:01:17,473607.0,0.0,0.0
14:01:17,473525.0,0.0,0.0
14:01:17,473639.0,0.0,0.0
14:01:17,473680.0,0.0,0.0
14:01:17,473664.0,0.0,0.0
14:01:17,473769.0,0.0,0.0
14:01:17,473726.0,0.0,0.0
14:01:17,473762.0,0.0,0.0
14:01:17,473747.0,0.0,0.0
14:01:17,473672.0,0.0,0.0
14:01:17,473701.0,0.0,0.0
14:01:17,473561.0,0.0,0.0
14:01:17,473593.0,0.0,0.0
14:01:17,473543.0,0.0,0.0
14:01:17,473448.0,0.0,0.0
14:01:17,473587.0,0.0,0.0
14:01:17,473614.0,0.0,0.0
14:01:17,473824.0,0.0,0.0
14:01:17,473865.0,0.0,0.0
14:01:17,473673.0,0.0,0.0
14:01:17,473624.0,0.0,0.0
14:01:17,473458.0,0.0,0.0
14:01:17,473493.0,0.0,0.0
14:01:17,473465.0,0.0,0.0
14:01:17,473398.0,0.0,0.0
14:01:17,473355.0,0.0,0.0
14:01:17,473227.0,0.0,0.0
14:01:17,473321.0,0.0,0.0
14:01:17,473323.0,0.0,0.0
14:01:17,473245.0,0.0,0.0
14:01:17,473301.0,0.0,0.0
14:01:17,473179.0,0.0,0.0
14:01:17,473138.0,0.0,0.0
14:01:17,473218.0,0.0,0.0
14:01:17,473221.0,0.0,0.0
14:01:17,473395.0,0.0,0.0
14:01:17,473518.0,0.0,0.0
14:01:17,473701.0,0.0,0.0
14:01:17,473637.0,0.0,0.0
14:01:17,473299.0,0.0,0.0
14:01:17,473261.0,0.0,0.0
14:01:17,473181.0,0.0,0.0
14:01:17,473268.0,0.0,0.0
14:01:17,473347.0,0.0,0.0
14:01:17,473290.0,0.0,0.0
14:01:17,473389.0,0.0,0.0
14:01:17,473383.0,0.0,0.0
14:01:17,473444.0,0.0,0.0
14:01:17,473487.0,0.0,0.0
14:01:17,473404.0,0.0,0.0
14:01:17,473428.0,0.0,0.0
14:01:17,473350.0,0.0,0.0
14:01:17,473356.0,0.0,0.0
14:01:17,473356.0,0.0,0.0
14:01:17,473259.0,0.0,0.0
14:01:17,473318.0,0.0,0.0
14:01:17,473232.0,0.0,0.0
14:01:17,473192.0,0.0,0.0
14:01:17,473203.0,0.0,0.0
14:01:17,473164.0,0.0,0.0
14:01:17,473218.0,0.0,0.0
14:01:17,473122.0,0.0,0.0
14:01:17,473076.0,0.0,0.0
14:01:17,472987.0,0.0,0.0
14:01:17,472856.0,0.0,0.0
14:01:17,472911.0,0.0,0.0
14:01:17,472833.0,0.0,0.0
14:01:17,472801.0,0.0,0.0
14:01:17,472863.0,0.0,0.0
14:01:17,472789.0,0.0,0.0
14:01:17,472832.0,0.0,0.0
14:01:17,472714.0,0.0,0.0
14:01:17,472726.0,0.0,0.0
14:01:17,472729.0,0.0,0.0
14:01:17,472646.0,0.0,0.0
14:01:17,472713.0,0.0,0.0
14:01:17,472611.0,0.0,0.0
14:01:17,472573.0,0.0,0.0
14:01:17,472536.0,0.0,0.0
14:01:17,472431.0,0.0,0.0
14:01:17,472544.0,0.0,0.0
14:01:17,472486.0,0.0,0.0
14:01:17,472551.0,0.0,0.0
14:01:17,472624.0,0.0,0.0
14:01:17,472647.0,0.0,0.0
14:01:17,472862.0,0.0,0.0
14:01:17,472868.0,0.0,0.0
14:01:17,473085.0,0.0,0.0
14:01:17,473191.0,0.0,0.0
14:01:17,473163.0,0.0,0.0
14:01:17,473341.0,0.0,0.0
14:01:17,473310.0,0.0,0.0
14:01:17,473343.0,0.0,0.0
14:01:17,473338.0,0.0,0.0
14:01:17,473258.0,0.0,0.0
14:01:17,473368.0,0.0,0.0
14:01:17,473158.0,0.0,0.0
14:01:17,473055.0,0.0,0.0
14:01:17,472999.0,0.0,0.0
14:01:17,472950.0,0.0,0.0
14:01:17,473078.0,0.0,0.0
14:01:17,473113.0,0.0,0.0
14:01:17,473225.0,0.0,0.0
14:01:17,473323.0,0.0,0.0
14:01:17,473360.0,0.0,0.0
14:01:17,473497.0,0.0,0.0
14:01:17,473470.0,0.0,0.0
14:01:17,473546.0,0.0,0.0
14:01:17,473514.0,0.0,0.0
14:01:17,473411.0,0.0,0.0
14:01:17,473518.0,0.0,0.0
14:01:17,473421.0,0.0,0.0
14:01:18,473403.0,0.0,0.0
14:01:18,473411.0,0.0,0.0
14:01:18,473516.0,0.0,0.0
14:01:18,473942.0,0.0,0.0
14:01:18,473892.0,0.0,0.0
14:01:18,473814.0,0.0,0.0
14:01:18,473809.0,0.0,0.0
14:01:18,473741.0,0.0,0.0
14:01:18,473832.0,0.0,0.0
14:01:18,473796.0,0.0,0.0
14:01:18,473739.0,0.0,0.0
14:01:18,473812.0,0.0,0.0
14:01:18,473857.0,0.0,0.0
14:01:18,473925.0,0.0,0.0
14:01:18,473801.0,0.0,0.0
14:01:18,473779.0,0.0,0.0
14:01:18,473800.0,0.0,0.0
14:01:18,473707.0,0.0,0.0
14:01:18,473751.0,0.0,0.0
14:01:18,473689.0,0.0,0.0
14:01:18,473736.0,0.0,0.0
14:01:18,473748.0,0.0,0.0
14:01:18,473633.0,0.0,0.0
14:01:18,473667.0,0.0,0.0
14:01:18,473553.0,0.0,0.0
14:01:18,473569.0,0.0,0.0
14:01:18,473589.0,0.0,0.0
14:01:18,473579.0,0.0,0.0
14:01:18,473666.0,0.0,0.0
14:01:18,473617.0,0.0,0.0
14:01:18,473704.0,0.0,0.0
14:01:18,473726.0,0.0,0.0
14:01:18,473706.0,0.0,0.0
14:01:18,473859.0,0.0,0.0
14:01:18,473828.0,0.0,0.0
14:01:18,473911.0,0.0,0.0
14:01:18,473988.0,0.0,0.0
14:01:18,473961.0,0.0,0.0
14:01:18,474046.0,0.0,0.0
14:01:18,473959.0,0.0,0.0
14:01:18,474044.0,0.0,0.0
14:01:18,474053.0,0.0,0.0
14:01:18,473883.0,0.0,0.0
14:01:18,473925.0,0.0,0.0
14:01:18,473828.0,0.0,0.0
14:01:18,473848.0,0.0,0.0
14:01:18,473865.0,0.0,0.0
14:01:18,473793.0,0.0,0.0
14:01:18,473806.0,0.0,0.0
14:01:18,473714.0,0.0,0.0
14:01:18,473751.0,0.0,0.0
14:01:18,473838.0,0.0,0.0
14:01:18,473804.0,0.0,0.0
14:01:18,474027.0,0.0,0.0
14:01:18,474073.0,0.0,0.0
14:01:18,474136.0,0.0,0.0
14:01:18,474208.0,0.0,0.0
14:01:18,474153.0,0.0,0.0
14:01:18,474210.0,0.0,0.0
14:01:18,474079.0,0.0,0.0
14:01:18,474098.0,0.0,0.0
14:01:18,474111.0,0.0,0.0
14:01:18,473948.0,0.0,0.0
14:01:18,473943.0,0.0,0.0
14:01:18,473901.0,0.0,0.0
14:01:18,473925.0,0.0,0.0
14:01:18,473889.0,0.0,0.0
14:01:18,473778.0,0.0,0.0
14:01:18,473883.0,0.0,0.0
14:01:18,473808.0,0.0,0.0
14:01:18,473819.0,0.0,0.0
14:01:18,473944.0,0.0,0.0
14:01:18,473874.0,0.0,0.0
14:01:18,473978.0,0.0,0.0
14:01:18,473961.0,0.0,0.0
14:01:18,473966.0,0.0,0.0
14:01:18,474031.0,0.0,0.0
14:01:18,473913.0,0.0,0.0
14:01:18,473996.0,0.0,0.0
14:01:18,474016.0,0.0,0.0
14:01:18,474119.0,0.0,0.0
14:01:18,474226.0,0.0,0.0
14:01:18,474233.0,0.0,0.0
14:01:18,474163.0,0.0,0.0
14:01:18,473872.0,0.0,0.0
14:01:18,473754.0,0.0,0.0
14:01:18,473837.0,0.0,0.0
14:01:18,473807.0,0.0,0.0
14:01:18,473955.0,0.0,0.0
14:01:18,473955.0,0.0,0.0
14:01:18,473888.0,0.0,0.0
14:01:18,473872.0,0.0,0.0
14:01:18,473732.0,0.0,0.0
14:01:18,473757.0,0.0,0.0
14:01:18,473706.0,0.0,0.0
14:01:18,473656.0,0.0,0.0
14:01:18,473704.0,0.0,0.0
14:01:18,473591.0,0.0,0.0
14:01:18,473660.0,0.0,0.0
14:01:18,473607.0,0.0,0.0
14:01:18,473560.0,0.0,0.0
14:01:18,473590.0,0.0,0.0
14:01:18,473477.0,0.0,0.0
14:01:18,473573.0,0.0,0.0
14:01:18,473514.0,0.0,0.0
14:01:18,473382.0,0.0,0.0
14:01:18,473397.0,0.0,0.0
14:01:18,473321.0,0.0,0.0
14:01:18,473356.0,0.0,0.0
14:01:18,473311.0,0.0,0.0
14:01:18,473368.0,0.0,0.0
14:01:18,473491.0,0.0,0.0
14:01:18,473423.0,0.0,0.0
14:01:18,473518.0,0.0,0.0
14:01:18,473426.0,0.0,0.0
14:01:18,473350.0,0.0,0.0
14:01:18,473436.0,0.0,0.0
14:01:18,473387.0,0.0,0.0
14:01:18,473487.0,0.0,0.0
14:01:18,473406.0,0.0,0.0
14:01:18,473327.0,0.0,0.0
14:01:18,473359.0,0.0,0.0
14:01:18,473286.0,0.0,0.0
14:01:18,473403.0,0.0,0.0
14:01:18,473448.0,0.0,0.0
14:01:19,473469.0,0.0,0.0
14:01:19,473569.0,0.0,0.0
14:01:19,473459.0,0.0,0.0
14:01:19,473589.0,0.0,0.0
14:01:19,473580.0,0.0,0.0
14:01:19,473564.0,0.0,0.0
14:01:19,473657.0,0.0,0.0
14:01:19,473527.0,0.0,0.0
14:01:19,473559.0,0.0,0.0
14:01:19,473519.0,0.0,0.0
14:01:19,473462.0,0.0,0.0
14:01:19,473523.0,0.0,0.0
14:01:19,473399.0,0.0,0.0
14:01:19,473471.0,0.0,0.0
14:01:19,473456.0,0.0,0.0
14:01:19,473419.0,0.0,0.0
14:01:19,473510.0,0.0,0.0
14:01:19,473475.0,0.0,0.0
14:01:19,473591.0,0.0,0.0
14:01:19,473613.0,0.0,0.0
14:01:19,473600.0,0.0,0.0
14:01:19,473703.0,0.0,0.0
14:01:19,473569.0,0.0,0.0
14:01:19,473597.0,0.0,0.0
14:01:19,473575.0,0.0,0.0
14:01:19,473526.0,0.0,0.0
14:01:19,473580.0,0.0,0.0
14:01:19,473400.0,0.0,0.0
14:01:19,473426.0,0.0,0.0
14:01:19,473478.0,0.0,0.0
14:01:19,473526.0,0.0,0.0
14:01:19,473704.0,0.0,0.0
14:01:19,473589.0,0.0,0.0
14:01:19,473540.0,0.0,0.0
14:01:19,473504.0,0.0,0.0
14:01:19,473421.0,0.0,0.0
14:01:19,473508.0,0.0,0.0
14:01:19,473458.0,0.0,0.0
14:01:19,473576.0,0.0,0.0
14:01:19,473612.0,0.0,0.0
14:01:19,473589.0,0.0,0.0
14:01:19,473681.0,0.0,0.0
14:01:19,473566.0,0.0,0.0
14:01:19,473614.0,0.0,0.0
14:01:19,473615.0,0.0,0.0
14:01:19,473578.0,0.0,0.0
14:01:19,473685.0,0.0,0.0
14:01:19,473610.0,0.0,0.0
14:01:19,473634.0,0.0,0.0
14:01:19,473656.0,0.0,0.0
14:01:19,473639.0,0.0,0.0
14:01:19,473761.0,0.0,0.0
14:01:19,473636.0,0.0,0.0
14:01:19,473650.0,0.0,0.0
14:01:19,473653.0,0.0,0.0
14:01:19,473584.0,0.0,0.0
14:01:19,473694.0,0.0,0.0
14:01:19,473569.0,0.0,0.0
14:01:19,473623.0,0.0,0.0
14:01:19,473649.0,0.0,0.0
14:01:19,473556.0,0.0,0.0
14:01:19,473673.0,0.0,0.0
14:01:19,473551.0,0.0,0.0
14:01:19,473598.0,0.0,0.0
14:01:19,473586.0,0.0,0.0
14:01:19,473539.0,0.0,0.0
14:01:19,473635.0,0.0,0.0
14:01:19,473548.0,0.0,0.0
14:01:19,473631.0,0.0,0.0
14:01:19,473620.0,0.0,0.0
14:01:19,473589.0,0.0,0.0
14:01:19,473674.0,0.0,0.0
14:01:19,473539.0,0.0,0.0
14:01:19,473564.0,0.0,0.0
14:01:19,473561.0,0.0,0.0
14:01:19,473532.0,0.0,0.0
14:01:19,473592.0,0.0,0.0
14:01:19,473476.0,0.0,0.0
14:01:19,473547.0,0.0,0.0
14:01:19,473521.0,0.0,0.0
14:01:19,473417.0,0.0,0.0
14:01:19,473522.0,0.0,0.0
14:01:19,473427.0,0.0,0.0
14:01:19,473508.0,0.0,0.0
14:01:19,473486.0,0.0,0.0
14:01:19,473481.0,0.0,0.0
14:01:19,473587.0,0.0,0.0
14:01:19,473488.0,0.0,0.0
14:01:19,473568.0,0.0,0.0
14:01:19,473568.0,0.0,0.0
14:01:19,473532.0,0.0,0.0
14:01:19,473616.0,0.0,0.0
14:01:19,473503.0,0.0,0.0
14:01:19,473536.0,0.0,0.0
14:01:19,473548.0,0.0,0.0
14:01:19,473509.0,0.0,0.0
14:01:19,473653.0,0.0,0.0
14:01:19,473554.0,0.0,0.0
14:01:19,473596.0,0.0,0.0
14:01:19,473553.0,0.0,0.0
14:01:19,473521.0,0.0,0.0
14:01:19,473739.0,0.0,0.0
14:01:19,473758.0,0.0,0.0
14:01:19,473864.0,0.0,0.0
14:01:19,473823.0,0.0,0.0
14:01:19,473641.0,0.0,0.0
14:01:19,473719.0,0.0,0.0
14:01:19,473679.0,0.0,0.0
14:01:19,473771.0,0.0,0.0
14:01:19,473784.0,0.0,0.0
14:01:19,473700.0,0.0,0.0
14:01:19,473859.0,0.0,0.0
14:01:19,473803.0,0.0,0.0
14:01:19,473832.0,0.0,0.0
14:01:19,473918.0,0.0,0.0
14:01:19,473873.0,0.0,0.0
14:01:19,473966.0,0.0,0.0
14:01:19,473872.0,0.0,0.0
14:01:19,473903.0,0.0,0.0
14:01:19,473946.0,0.0,0.0
14:01:19,473906.0,0.0,0.0
14:01:19,474014.0,0.0,0.0
14:01:19,473953.0,0.0,0.0
14:01:19,473997.0,0.0,0.0
14:01:19,474008.0,0.0,0.0
14:01:20,473979.0,0.0,0.0
14:01:20,474180.0,0.0,0.0
14:01:20,474096.0,0.0,0.0
14:01:20,474150.0,0.0,0.0
14:01:20,474229.0,0.0,0.0
14:01:20,474177.0,0.0,0.0
14:01:20,474273.0,0.0,0.0
14:01:20,474204.0,0.0,0.0
14:01:20,474317.0,0.0,0.0
14:01:20,474361.0,0.0,0.0
14:01:20,474320.0,0.0,0.0
14:01:20,474403.0,0.0,0.0
14:01:20,474321.0,0.0,0.0
14:01:20,474426.0,0.0,0.0
14:01:20,474439.0,0.0,0.0
14:01:20,474426.0,0.0,0.0
14:01:20,474563.0,0.0,0.0
14:01:20,474472.0,0.0,0.0
14:01:20,474496.0,0.0,0.0
14:01:20,474532.0,0.0,0.0
14:01:20,474513.0,0.0,0.0
14:01:20,474635.0,0.0,0.0
14:01:20,474561.0,0.0,0.0
14:01:20,474636.0,0.0,0.0
14:01:20,474664.0,0.0,0.0
14:01:20,474603.0,0.0,0.0
14:01:20,474685.0,0.0,0.0
14:01:20,474678.0,0.0,0.0
14:01:20,474716.0,0.0,0.0
14:01:20,474733.0,0.0,0.0
14:01:20,474678.0,0.0,0.0
14:01:20,474777.0,0.0,0.0
14:01:20,474707.0,0.0,0.0
14:01:20,474768.0,0.0,0.0
14:01:20,474844.0,0.0,0.0
14:01:20,474799.0,0.0,0.0
14:01:20,474907.0,0.0,0.0
14:01:20,474818.0,0.0,0.0
14:01:20,474901.0,0.0,0.0
14:01:20,474961.0,0.0,0.0
14:01:20,474941.0,0.0,0.0
14:01:20,475013.0,0.0,0.0
14:01:20,474979.0,0.0,0.0
14:01:20,475028.0,0.0,0.0
14:01:20,474989.0,0.0,0.0
14:01:20,474940.0,0.0,0.0
14:01:20,475088.0,0.0,0.0
14:01:20,475161.0,0.0,0.0
14:01:20,475274.0,0.0,0.0
14:01:20,475374.0,0.0,0.0
14:01:20,475303.0,0.0,0.0
14:01:20,475311.0,0.0,0.0
14:01:20,475250.0,0.0,0.0
14:01:20,475341.0,0.0,0.0
14:01:20,475396.0,0.0,0.0
14:01:20,475391.0,0.0,0.0
14:01:20,475512.0,0.0,0.0
14:01:20,475469.0,0.0,0.0
14:01:20,475477.0,0.0,0.0
14:01:20,475511.0,0.0,0.0
14:01:20,475471.0,0.0,0.0
14:01:20,475563.0,0.0,0.0
14:01:20,475495.0,0.0,0.0
14:01:20,475514.0,0.0,0.0
14:01:20,475559.0,0.0,0.0
14:01:20,475515.0,0.0,0.0
14:01:20,475589.0,0.0,0.0
14:01:20,475519.0,0.0,0.0
14:01:20,475549.0,0.0,0.0
14:01:20,475544.0,0.0,0.0
14:01:20,475492.0,0.0,0.0
14:01:20,475626.0,0.0,0.0
14:01:20,475599.0,0.0,0.0
14:01:20,475686.0,0.0,0.0
14:01:20,475700.0,0.0,0.0
14:01:20,475643.0,0.0,0.0
14:01:20,475734.0,0.0,0.0
14:01:20,475698.0,0.0,0.0
14:01:20,475791.0,0.0,0.0
14:01:20,475820.0,0.0,0.0
14:01:20,475753.0,0.0,0.0
14:01:20,475824.0,0.0,0.0
14:01:20,475777.0,0.0,0.0
14:01:20,475832.0,0.0,0.0
14:01:20,475843.0,0.0,0.0
14:01:20,475809.0,0.0,0.0
14:01:20,475941.0,0.0,0.0
14:01:20,475869.0,0.0,0.0
14:01:20,475870.0,0.0,0.0
14:01:20,475889.0,0.0,0.0
14:01:20,475828.0,0.0,0.0
14:01:20,475952.0,0.0,0.0
14:01:20,475843.0,0.0,0.0
14:01:20,475848.0,0.0,0.0
14:01:20,475813.0,0.0,0.0
14:01:20,475716.0,0.0,0.0
14:01:20,475777.0,0.0,0.0
14:01:20,475646.0,0.0,0.0
14:01:20,475674.0,0.0,0.0
14:01:20,475713.0,0.0,0.0
14:01:20,475639.0,0.0,0.0
14:01:20,475746.0,0.0,0.0
14:01:20,475656.0,0.0,0.0
14:01:20,475733.0,0.0,0.0
14:01:20,475796.0,0.0,0.0
14:01:20,475696.0,0.0,0.0
14:01:20,475784.0,0.0,0.0
14:01:20,475671.0,0.0,0.0
14:01:20,475684.0,0.0,0.0
14:01:20,475764.0,0.0,0.0
14:01:20,475698.0,0.0,0.0
14:01:20,475704.0,0.0,0.0
14:01:20,475584.0,0.0,0.0
14:01:20,475571.0,0.0,0.0
14:01:20,475491.0,0.0,0.0
14:01:20,475342.0,0.0,0.0
14:01:20,475374.0,0.0,0.0
14:01:20,475287.0,0.0,0.0
14:01:20,475368.0,0.0,0.0
14:01:20,475496.0,0.0,0.0
14:01:20,475531.0,0.0,0.0
14:01:20,475739.0,0.0,0.0
14:01:20,475588.0,0.0,0.0
14:01:20,475518.0,0.0,0.0
14:01:20,475569.0,0.0,0.0
14:01:21,475530.0,0.0,0.0
14:01:21,475678.0,0.0,0.0
14:01:21,475593.0,0.0,0.0
14:01:21,475673.0,0.0,0.0
14:01:21,475734.0,0.0,0.0
14:01:21,475679.0,0.0,0.0
14:01:21,475729.0,0.0,0.0
14:01:21,475609.0,0.0,0.0
14:01:21,475671.0,0.0,0.0
14:01:21,475721.0,0.0,0.0
14:01:21,475668.0,0.0,0.0
14:01:21,475773.0,0.0,0.0
14:01:21,475761.0,0.0,0.0
14:01:21,475716.0,0.0,0.0
14:01:21,475735.0,0.0,0.0
14:01:21,475768.0,0.0,0.0
14:01:21,475878.0,0.0,0.0
14:01:21,475869.0,0.0,0.0
14:01:21,475781.0,0.0,0.0
14:01:21,475656.0,0.0,0.0
14:01:21,475515.0,0.0,0.0
14:01:21,475609.0,0.0,0.0
14:01:21,475518.0,0.0,0.0
14:01:21,475603.0,0.0,0.0
14:01:21,475601.0,0.0,0.0
14:01:21,475513.0,0.0,0.0
14:01:21,475696.0,0.0,0.0
14:01:21,475654.0,0.0,0.0
14:01:21,475744.0,0.0,0.0
14:01:21,475874.0,0.0,0.0
14:01:21,475925.0,0.0,0.0
14:01:21,475959.0,0.0,0.0
14:01:21,475858.0,0.0,0.0
14:01:21,475889.0,0.0,0.0
14:01:21,475859.0,0.0,0.0
14:01:21,475784.0,0.0,0.0
14:01:21,475864.0,0.0,0.0
14:01:21,475684.0,0.0,0.0
14:01:21,475710.0,0.0,0.0
14:01:21,475643.0,0.0,0.0
14:01:21,475554.0,0.0,0.0
14:01:21,475687.0,0.0,0.0
14:01:21,475661.0,0.0,0.0
14:01:21,475810.0,0.0,0.0
14:01:21,475808.0,0.0,0.0
14:01:21,475683.0,0.0,0.0
14:01:21,475758.0,0.0,0.0
14:01:21,475694.0,0.0,0.0
14:01:21,475809.0,0.0,0.0
14:01:21,475873.0,0.0,0.0
14:01:21,475809.0,0.0,0.0
14:01:21,475945.0,0.0,0.0
14:01:21,475840.0,0.0,0.0
14:01:21,475871.0,0.0,0.0
14:01:21,475931.0,0.0,0.0
14:01:21,475914.0,0.0,0.0
14:01:21,476068.0,0.0,0.0
14:01:21,476027.0,0.0,0.0
14:01:21,476073.0,0.0,0.0
14:01:21,476129.0,0.0,0.0
14:01:21,476090.0,0.0,0.0
14:01:21,476191.0,0.0,0.0
14:01:21,476118.0,0.0,0.0
14:01:21,476211.0,0.0,0.0
14:01:21,476261.0,0.0,0.0
14:01:21,476138.0,0.0,0.0
14:01:21,476170.0,0.0,0.0
14:01:21,476138.0,0.0,0.0
14:01:21,476345.0,0.0,0.0
14:01:21,476509.0,0.0,0.0
14:01:21,476549.0,0.0,0.0
14:01:21,476528.0,0.0,0.0
14:01:21,476326.0,0.0,0.0
14:01:21,476408.0,0.0,0.0
14:01:21,476474.0,0.0,0.0
14:01:21,476544.0,0.0,0.0
14:01:21,476713.0,0.0,0.0
14:01:21,476660.0,0.0,0.0
14:01:21,476662.0,0.0,0.0
14:01:21,476673.0,0.0,0.0
14:01:21,476626.0,0.0,0.0
14:01:21,476750.0,0.0,0.0
14:01:21,476624.0,0.0,0.0
14:01:21,476650.0,0.0,0.0
14:01:21,476626.0,0.0,0.0
14:01:21,476544.0,0.0,0.0
14:01:21,476585.0,0.0,0.0
14:01:21,476479.0,0.0,0.0
14:01:21,476533.0,0.0,0.0
14:01:21,476498.0,0.0,0.0
14:01:21,476428.0,0.0,0.0
14:01:21,476485.0,0.0,0.0
14:01:21,476378.0,0.0,0.0
14:01:21,476449.0,0.0,0.0
14:01:21,476404.0,0.0,0.0
14:01:21,476348.0,0.0,0.0
14:01:21,476424.0,0.0,0.0
14:01:21,476276.0,0.0,0.0
14:01:21,476282.0,0.0,0.0
14:01:21,476248.0,0.0,0.0
14:01:21,476205.0,0.0,0.0
14:01:21,476308.0,0.0,0.0
14:01:21,476193.0,0.0,0.0
14:01:21,476293.0,0.0,0.0
14:01:21,476294.0,0.0,0.0
14:01:21,476265.0,0.0,0.0
14:01:21,476346.0,0.0,0.0
14:01:21,476273.0,0.0,0.0
14:01:21,476354.0,0.0,0.0
14:01:21,476328.0,0.0,0.0
14:01:21,476249.0,0.0,0.0
14:01:21,476323.0,0.0,0.0
14:01:21,476213.0,0.0,0.0
14:01:21,476286.0,0.0,0.0
14:01:21,476374.0,0.0,0.0
14:01:21,476373.0,0.0,0.0
14:01:21,476466.0,0.0,0.0
14:01:21,476398.0,0.0,0.0
14:01:21,476468.0,0.0,0.0
14:01:21,476518.0,0.0,0.0
14:01:21,476489.0,0.0,0.0
14:01:21,476528.0,0.0,0.0
14:01:21,476463.0,0.0,0.0
14:01:21,476534.0,0.0,0.0
14:01:21,476581.0,0.0,0.0
14:01:22,476536.0,0.0,0.0
14:01:22,476641.0,0.0,0.0
14:01:22,476593.0,0.0,0.0
14:01:22,476671.0,0.0,0.0
14:01:22,476630.0,0.0,0.0
14:01:22,476574.0,0.0,0.0
14:01:22,476616.0,0.0,0.0
14:01:22,476501.0,0.0,0.0
14:01:22,476585.0,0.0,0.0
14:01:22,476549.0,0.0,0.0
14:01:22,476443.0,0.0,0.0
14:01:22,476486.0,0.0,0.0
14:01:22,476326.0,0.0,0.0
14:01:22,476389.0,0.0,0.0
14:01:22,476318.0,0.0,0.0
14:01:22,476203.0,0.0,0.0
14:01:22,476239.0,0.0,0.0
14:01:22,476048.0,0.0,0.0
14:01:22,476024.0,0.0,0.0
14:01:22,475968.0,0.0,0.0
14:01:22,475982.0,0.0,0.0
14:01:22,476129.0,0.0,0.0
14:01:22,476098.0,0.0,0.0
14:01:22,475922.0,0.0,0.0
14:01:22,475621.0,0.0,0.0
14:01:22,475421.0,0.0,0.0
14:01:22,475505.0,0.0,0.0
14:01:22,475439.0,0.0,0.0
14:01:22,475518.0,0.0,0.0
14:01:22,475424.0,0.0,0.0
14:01:22,475272.0,0.0,0.0
14:01:22,475238.0,0.0,0.0
14:01:22,475158.0,0.0,0.0
14:01:22,475185.0,0.0,0.0
14:01:22,475079.0,0.0,0.0
14:01:22,474978.0,0.0,0.0
14:01:22,475028.0,0.0,0.0
14:01:22,474867.0,0.0,0.0
14:01:22,474854.0,0.0,0.0
14:01:22,474774.0,0.0,0.0
14:01:22,474682.0,0.0,0.0
14:01:22,474729.0,0.0,0.0
14:01:22,474496.0,0.0,0.0
14:01:22,474478.0,0.0,0.0
14:01:22,474457.0,0.0,0.0
14:01:22,474358.0,0.0,0.0
14:01:22,474484.0,0.0,0.0
14:01:22,474404.0,0.0,0.0
14:01:22,474431.0,0.0,0.0
14:01:22,474394.0,0.0,0.0
14:01:22,474279.0,0.0,0.0
14:01:22,474381.0,0.0,0.0
14:01:22,474268.0,0.0,0.0
14:01:22,474300.0,0.0,0.0
14:01:22,474309.0,0.0,0.0
14:01:22,474219.0,0.0,0.0
14:01:22,474285.0,0.0,0.0
14:01:22,474132.0,0.0,0.0
14:01:22,474137.0,0.0,0.0
14:01:22,474193.0,0.0,0.0
14:01:22,474116.0,0.0,0.0
14:01:22,474186.0,0.0,0.0
14:01:22,474041.0,0.0,0.0
14:01:22,473993.0,0.0,0.0
14:01:22,473845.0,0.0,0.0
14:01:22,473527.0,0.0,0.0
14:01:22,473792.0,0.0,0.0
14:01:22,473913.0,0.0,0.0
14:01:22,473906.0,0.0,0.0
14:01:22,473955.0,0.0,0.0
14:01:22,473908.0,0.0,0.0
14:01:22,474052.0,0.0,0.0
14:01:22,473886.0,0.0,0.0
14:01:22,473931.0,0.0,0.0
14:01:22,473942.0,0.0,0.0
14:01:22,473879.0,0.0,0.0
14:01:22,473972.0,0.0,0.0
14:01:22,473804.0,0.0,0.0
14:01:22,473751.0,0.0,0.0
14:01:22,473740.0,0.0,0.0
14:01:22,473661.0,0.0,0.0
14:01:22,473754.0,0.0,0.0
14:01:22,473683.0,0.0,0.0
14:01:22,473703.0,0.0,0.0
14:01:22,473683.0,0.0,0.0
14:01:22,473620.0,0.0,0.0
14:01:22,473721.0,0.0,0.0
14:01:22,473591.0,0.0,0.0
14:01:22,473632.0,0.0,0.0
14:01:22,473645.0,0.0,0.0
14:01:22,473642.0,0.0,0.0
14:01:22,473824.0,0.0,0.0
14:01:22,473691.0,0.0,0.0
14:01:22,473736.0,0.0,0.0
14:01:22,473719.0,0.0,0.0
14:01:22,473598.0,0.0,0.0
14:01:22,473641.0,0.0,0.0
14:01:22,473497.0,0.0,0.0
14:01:22,473505.0,0.0,0.0
14:01:22,473530.0,0.0,0.0
14:01:22,473617.0,0.0,0.0
14:01:22,473936.0,0.0,0.0
14:01:22,473877.0,0.0,0.0
14:01:22,473734.0,0.0,0.0
14:01:22,473555.0,0.0,0.0
14:01:22,473419.0,0.0,0.0
14:01:22,473503.0,0.0,0.0
14:01:22,473429.0,0.0,0.0
14:01:22,473491.0,0.0,0.0
14:01:22,473505.0,0.0,0.0
14:01:22,473459.0,0.0,0.0
14:01:22,473566.0,0.0,0.0
14:01:22,473469.0,0.0,0.0
14:01:22,473488.0,0.0,0.0
14:01:22,473456.0,0.0,0.0
14:01:22,473413.0,0.0,0.0
14:01:22,473503.0,0.0,0.0
14:01:22,473412.0,0.0,0.0
14:01:22,473478.0,0.0,0.0
14:01:22,473489.0,0.0,0.0
14:01:22,473401.0,0.0,0.0
14:01:22,473475.0,0.0,0.0
14:01:22,473405.0,0.0,0.0
14:01:22,473426.0,0.0,0.0
14:01:22,473461.0,0.0,0.0
14:01:23,473391.0,0.0,0.0
14:01:23,473487.0,0.0,0.0
14:01:23,473414.0,0.0,0.0
14:01:23,473401.0,0.0,0.0
14:01:23,473527.0,0.0,0.0
14:01:23,473493.0,0.0,0.0
14:01:23,473640.0,0.0,0.0
14:01:23,473644.0,0.0,0.0
14:01:23,473718.0,0.0,0.0
14:01:23,473771.0,0.0,0.0
14:01:23,473758.0,0.0,0.0
14:01:23,473858.0,0.0,0.0
14:01:23,473776.0,0.0,0.0
14:01:23,473712.0,0.0,0.0
14:01:23,473661.0,0.0,0.0
14:01:23,473575.0,0.0,0.0
14:01:23,473771.0,0.0,0.0
14:01:23,473723.0,0.0,0.0
14:01:23,473781.0,0.0,0.0
14:01:23,473813.0,0.0,0.0
14:01:23,473734.0,0.0,0.0
14:01:23,473871.0,0.0,0.0
14:01:23,473736.0,0.0,0.0
14:01:23,473750.0,0.0,0.0
14:01:23,473835.0,0.0,0.0
14:01:23,473778.0,0.0,0.0
14:01:23,473824.0,0.0,0.0
14:01:23,473736.0,0.0,0.0
14:01:23,473773.0,0.0,0.0
14:01:23,473809.0,0.0,0.0
14:01:23,473758.0,0.0,0.0
14:01:23,473874.0,0.0,0.0
14:01:23,473749.0,0.0,0.0
14:01:23,473761.0,0.0,0.0
14:01:23,473746.0,0.0,0.0
14:01:23,473634.0,0.0,0.0
14:01:23,473774.0,0.0,0.0
14:01:23,473663.0,0.0,0.0
14:01:23,473682.0,0.0,0.0
14:01:23,473784.0,0.0,0.0
14:01:23,473689.0,0.0,0.0
14:01:23,473733.0,0.0,0.0
14:01:23,473608.0,0.0,0.0
14:01:23,473631.0,0.0,0.0
14:01:23,473676.0,0.0,0.0
14:01:23,473569.0,0.0,0.0
14:01:23,473647.0,0.0,0.0
14:01:23,473554.0,0.0,0.0
14:01:23,473525.0,0.0,0.0
14:01:23,473558.0,0.0,0.0
14:01:23,473509.0,0.0,0.0
14:01:23,473716.0,0.0,0.0
14:01:23,473588.0,0.0,0.0
14:01:23,473481.0,0.0,0.0
14:01:23,473529.0,0.0,0.0
14:01:23,473543.0,0.0,0.0
14:01:23,473857.0,0.0,0.0
14:01:23,473837.0,0.0,0.0
14:01:23,473549.0,0.0,0.0
14:01:23,473414.0,0.0,0.0
14:01:23,473302.0,0.0,0.0
14:01:23,473481.0,0.0,0.0
14:01:23,473547.0,0.0,0.0
14:01:23,473644.0,0.0,0.0
14:01:23,473668.0,0.0,0.0
14:01:23,473523.0,0.0,0.0
14:01:23,473623.0,0.0,0.0
14:01:23,473656.0,0.0,0.0
14:01:23,473694.0,0.0,0.0
14:01:23,473789.0,0.0,0.0
14:01:23,473674.0,0.0,0.0
14:01:23,473719.0,0.0,0.0
14:01:23,473596.0,0.0,0.0
14:01:23,473583.0,0.0,0.0
14:01:23,473574.0,0.0,0.0
14:01:23,473489.0,0.0,0.0
14:01:23,473706.0,0.0,0.0
14:01:23,473678.0,0.0,0.0
14:01:23,473616.0,0.0,0.0
14:01:23,473621.0,0.0,0.0
14:01:23,473550.0,0.0,0.0
14:01:23,473721.0,0.0,0.0
14:01:23,473707.0,0.0,0.0
14:01:23,473651.0,0.0,0.0
14:01:23,473679.0,0.0,0.0
14:01:23,473576.0,0.0,0.0
14:01:23,473641.0,0.0,0.0
14:01:23,473541.0,0.0,0.0
14:01:23,473556.0,0.0,0.0
14:01:23,473651.0,0.0,0.0
14:01:23,473570.0,0.0,0.0
14:01:23,473588.0,0.0,0.0
14:01:23,473514.0,0.0,0.0
14:01:23,473572.0,0.0,0.0
14:01:23,473608.0,0.0,0.0
14:01:23,473466.0,0.0,0.0
14:01:23,473533.0,0.0,0.0
14:01:23,473440.0,0.0,0.0
14:01:23,473390.0,0.0,0.0
14:01:23,473418.0,0.0,0.0
14:01:23,473326.0,0.0,0.0
14:01:23,473411.0,0.0,0.0
14:01:23,473274.0,0.0,0.0
14:01:23,473247.0,0.0,0.0
14:01:23,473300.0,0.0,0.0
14:01:23,473207.0,0.0,0.0
14:01:23,473271.0,0.0,0.0
14:01:23,473171.0,0.0,0.0
14:01:23,473218.0,0.0,0.0
14:01:23,473224.0,0.0,0.0
14:01:23,473086.0,0.0,0.0
14:01:23,473169.0,0.0,0.0
14:01:23,473082.0,0.0,0.0
14:01:23,473074.0,0.0,0.0
14:01:23,473119.0,0.0,0.0
14:01:23,473038.0,0.0,0.0
14:01:23,473097.0,0.0,0.0
14:01:23,472982.0,0.0,0.0
14:01:23,473016.0,0.0,0.0
14:01:23,473023.0,0.0,0.0
14:01:23,472894.0,0.0,0.0
14:01:23,473003.0,0.0,0.0
14:01:23,472883.0,0.0,0.0
14:01:23,472853.0,0.0,0.0
14:01:23,472793.0,0.0,0.0
14:01:23,472676.0,0.0,0.0
14:01:24,472853.0,0.0,0.0
14:01:24,472794.0,0.0,0.0
14:01:24,472837.0,0.0,0.0
14:01:24,472870.0,0.0,0.0
14:01:24,472714.0,0.0,0.0
14:01:24,472804.0,0.0,0.0
14:01:24,472684.0,0.0,0.0
14:01:24,472619.0,0.0,0.0
14:01:24,472644.0,0.0,0.0
14:01:24,472638.0,0.0,0.0
14:01:24,472935.0,0.0,0.0
14:01:24,473029.0,0.0,0.0
14:01:24,472849.0,0.0,0.0
14:01:24,472628.0,0.0,0.0
14:01:24,472403.0,0.0,0.0
14:01:24,472496.0,0.0,0.0
14:01:24,472452.0,0.0,0.0
14:01:24,472432.0,0.0,0.0
14:01:24,472476.0,0.0,0.0
14:01:24,472463.0,0.0,0.0
14:01:24,472580.0,0.0,0.0
14:01:24,472454.0,0.0,0.0
14:01:24,472393.0,0.0,0.0
14:01:24,472409.0,0.0,0.0
14:01:24,472266.0,0.0,0.0
14:01:24,472308.0,0.0,0.0
14:01:24,472182.0,0.0,0.0
14:01:24,472152.0,0.0,0.0
14:01:24,472197.0,0.0,0.0
14:01:24,472121.0,0.0,0.0
14:01:24,472192.0,0.0,0.0
14:01:24,472110.0,0.0,0.0
14:01:24,472102.0,0.0,0.0
14:01:24,472183.0,0.0,0.0
14:01:24,472044.0,0.0,0.0
14:01:24,472087.0,0.0,0.0
14:01:24,472004.0,0.0,0.0
14:01:24,471980.0,0.0,0.0
14:01:24,472134.0,0.0,0.0
14:01:24,472108.0,0.0,0.0
14:01:24,472257.0,0.0,0.0
14:01:24,472154.0,0.0,0.0
14:01:24,472119.0,0.0,0.0
14:01:24,472171.0,0.0,0.0
14:01:24,472053.0,0.0,0.0
14:01:24,472122.0,0.0,0.0
14:01:24,472131.0,0.0,0.0
14:01:24,472090.0,0.0,0.0
14:01:24,472139.0,0.0,0.0
14:01:24,471977.0,0.0,0.0
14:01:24,472082.0,0.0,0.0
14:01:24,472097.0,0.0,0.0
14:01:24,472056.0,0.0,0.0
14:01:24,472138.0,0.0,0.0
14:01:24,472065.0,0.0,0.0
14:01:24,472136.0,0.0,0.0
14:01:24,472117.0,0.0,0.0
14:01:24,472099.0,0.0,0.0
14:01:24,472163.0,0.0,0.0
14:01:24,472072.0,0.0,0.0
14:01:24,472139.0,0.0,0.0
14:01:24,472107.0,0.0,0.0
14:01:24,472040.0,0.0,0.0
14:01:24,472123.0,0.0,0.0
14:01:24,472026.0,0.0,0.0
14:01:24,472125.0,0.0,0.0
14:01:24,472083.0,0.0,0.0
14:01:24,472068.0,0.0,0.0
14:01:24,472175.0,0.0,0.0
14:01:24,472068.0,0.0,0.0
14:01:24,472150.0,0.0,0.0
14:01:24,472117.0,0.0,0.0
14:01:24,472112.0,0.0,0.0
14:01:24,472219.0,0.0,0.0
14:01:24,472129.0,0.0,0.0
14:01:24,472204.0,0.0,0.0
14:01:24,472183.0,0.0,0.0
14:01:24,472151.0,0.0,0.0
14:01:24,472234.0,0.0,0.0
14:01:24,472114.0,0.0,0.0
14:01:24,472207.0,0.0,0.0
14:01:24,472153.0,0.0,0.0
14:01:24,472143.0,0.0,0.0
14:01:24,472238.0,0.0,0.0
14:01:24,472151.0,0.0,0.0
14:01:24,472232.0,0.0,0.0
14:01:24,472183.0,0.0,0.0
14:01:24,472354.0,0.0,0.0
14:01:24,472640.0,0.0,0.0
14:01:24,472648.0,0.0,0.0
14:01:24,472563.0,0.0,0.0
14:01:24,472352.0,0.0,0.0
14:01:24,472322.0,0.0,0.0
14:01:24,472426.0,0.0,0.0
14:01:24,472321.0,0.0,0.0
14:01:24,472441.0,0.0,0.0
14:01:24,472422.0,0.0,0.0
14:01:24,472472.0,0.0,0.0
14:01:24,472562.0,0.0,0.0
14:01:24,472514.0,0.0,0.0
14:01:24,472683.0,0.0,0.0
14:01:24,472703.0,0.0,0.0
14:01:24,472766.0,0.0,0.0
14:01:24,472859.0,0.0,0.0
14:01:24,472798.0,0.0,0.0
14:01:24,472941.0,0.0,0.0
14:01:24,472875.0,0.0,0.0
14:01:24,472883.0,0.0,0.0
14:01:24,472920.0,0.0,0.0
14:01:24,472844.0,0.0,0.0
14:01:24,472983.0,0.0,0.0
14:01:24,472869.0,0.0,0.0
14:01:24,472870.0,0.0,0.0
14:01:24,472914.0,0.0,0.0
14:01:24,472833.0,0.0,0.0
14:01:24,472953.0,0.0,0.0
14:01:24,472986.0,0.0,0.0
14:01:24,473031.0,0.0,0.0
14:01:24,473044.0,0.0,0.0
14:01:24,472980.0,0.0,0.0
14:01:24,473124.0,0.0,0.0
14:01:24,473095.0,0.0,0.0
14:01:24,473097.0,0.0,0.0
14:01:24,473201.0,0.0,0.0
14:01:24,473159.0,0.0,0.0
14:01:25,473208.0,0.0,0.0
14:01:25,473143.0,0.0,0.0
14:01:25,473104.0,0.0,0.0
14:01:25,473204.0,0.0,0.0
14:01:25,473163.0,0.0,0.0
14:01:25,473209.0,0.0,0.0
14:01:25,473192.0,0.0,0.0
14:01:25,473197.0,0.0,0.0
14:01:25,473273.0,0.0,0.0
14:01:25,473154.0,0.0,0.0
14:01:25,473259.0,0.0,0.0
14:01:25,473234.0,0.0,0.0
14:01:25,473226.0,0.0,0.0
14:01:25,473354.0,0.0,0.0
14:01:25,473258.0,0.0,0.0
14:01:25,473428.0,0.0,0.0
14:01:25,473472.0,0.0,0.0
14:01:25,473439.0,0.0,0.0
14:01:25,473576.0,0.0,0.0
14:01:25,473478.0,0.0,0.0
14:01:25,473471.0,0.0,0.0
14:01:25,473407.0,0.0,0.0
14:01:25,473424.0,0.0,0.0
14:01:25,473558.0,0.0,0.0
14:01:25,473477.0,0.0,0.0
14:01:25,473561.0,0.0,0.0
14:01:25,473558.0,0.0,0.0
14:01:25,473555.0,0.0,0.0
14:01:25,473638.0,0.0,0.0
14:01:25,473511.0,0.0,0.0
14:01:25,473646.0,0.0,0.0
14:01:25,473663.0,0.0,0.0
14:01:25,473696.0,0.0,0.0
14:01:25,473859.0,0.0,0.0
14:01:25,473781.0,0.0,0.0
14:01:25,473935.0,0.0,0.0
14:01:25,473900.0,0.0,0.0
14:01:25,473869.0,0.0,0.0
14:01:25,473988.0,0.0,0.0
14:01:25,474001.0,0.0,0.0
14:01:25,474213.0,0.0,0.0
14:01:25,474273.0,0.0,0.0
14:01:25,474220.0,0.0,0.0
14:01:25,474178.0,0.0,0.0
14:01:25,474003.0,0.0,0.0
14:01:25,474071.0,0.0,0.0
14:01:25,474056.0,0.0,0.0
14:01:25,474040.0,0.0,0.0
14:01:25,474154.0,0.0,0.0
14:01:25,474064.0,0.0,0.0
14:01:25,474164.0,0.0,0.0
14:01:25,474199.0,0.0,0.0
14:01:25,474168.0,0.0,0.0
14:01:25,474263.0,0.0,0.0
14:01:25,474175.0,0.0,0.0
14:01:25,474260.0,0.0,0.0
14:01:25,474207.0,0.0,0.0
14:01:25,474224.0,0.0,0.0
14:01:25,474354.0,0.0,0.0
14:01:25,474306.0,0.0,0.0
14:01:25,474421.0,0.0,0.0
14:01:25,474414.0,0.0,0.0
14:01:25,474436.0,0.0,0.0
14:01:25,474523.0,0.0,0.0
14:01:25,474468.0,0.0,0.0
14:01:25,474586.0,0.0,0.0
14:01:25,474550.0,0.0,0.0
14:01:25,474524.0,0.0,0.0
14:01:25,474619.0,0.0,0.0
14:01:25,474541.0,0.0,0.0
14:01:25,474612.0,0.0,0.0
14:01:25,474527.0,0.0,0.0
14:01:25,474498.0,0.0,0.0
14:01:25,474546.0,0.0,0.0
14:01:25,474464.0,0.0,0.0
14:01:25,474553.0,0.0,0.0
14:01:25,474528.0,0.0,0.0
14:01:25,474438.0,0.0,0.0
14:01:25,474452.0,0.0,0.0
14:01:25,474333.0,0.0,0.0
14:01:25,474494.0,0.0,0.0
14:01:25,474570.0,0.0,0.0
14:01:25,474521.0,0.0,0.0
14:01:25,474654.0,0.0,0.0
14:01:25,474595.0,0.0,0.0
14:01:25,474720.0,0.0,0.0
14:01:25,474696.0,0.0,0.0
14:01:25,474624.0,0.0,0.0
14:01:25,474743.0,0.0,0.0
14:01:25,474668.0,0.0,0.0
14:01:25,474721.0,0.0,0.0
14:01:25,474699.0,0.0,0.0
14:01:25,474622.0,0.0,0.0
14:01:25,474721.0,0.0,0.0
14:01:25,474661.0,0.0,0.0
14:01:25,474723.0,0.0,0.0
14:01:25,474737.0,0.0,0.0
14:01:25,474651.0,0.0,0.0
14:01:25,474746.0,0.0,0.0
14:01:25,474673.0,0.0,0.0
14:01:25,474758.0,0.0,0.0
14:01:25,474773.0,0.0,0.0
14:01:25,474769.0,0.0,0.0
14:01:25,474846.0,0.0,0.0
14:01:25,474761.0,0.0,0.0
14:01:25,474830.0,0.0,0.0
14:01:25,474873.0,0.0,0.0
14:01:25,474856.0,0.0,0.0
14:01:25,474957.0,0.0,0.0
14:01:25,474849.0,0.0,0.0
14:01:25,474908.0,0.0,0.0
14:01:25,474887.0,0.0,0.0
14:01:25,474838.0,0.0,0.0
14:01:25,475101.0,0.0,0.0
14:01:25,475148.0,0.0,0.0
14:01:25,475237.0,0.0,0.0
14:01:25,475106.0,0.0,0.0
14:01:25,474898.0,0.0,0.0
14:01:25,474948.0,0.0,0.0
14:01:25,474923.0,0.0,0.0
14:01:25,475054.0,0.0,0.0
14:01:25,475090.0,0.0,0.0
14:01:25,475081.0,0.0,0.0
14:01:25,475161.0,0.0,0.0
14:01:26,475062.0,0.0,0.0
14:01:26,475136.0,0.0,0.0
14:01:26,475158.0,0.0,0.0
14:01:26,475106.0,0.0,0.0
14:01:26,475151.0,0.0,0.0
14:01:26,475083.0,0.0,0.0
14:01:26,475146.0,0.0,0.0
14:01:26,475143.0,0.0,0.0
14:01:26,475086.0,0.0,0.0
14:01:26,475158.0,0.0,0.0
14:01:26,475036.0,0.0,0.0
14:01:26,475092.0,0.0,0.0
14:01:26,475072.0,0.0,0.0
14:01:26,475018.0,0.0,0.0
14:01:26,475162.0,0.0,0.0
14:01:26,475108.0,0.0,0.0
14:01:26,475150.0,0.0,0.0
14:01:26,475146.0,0.0,0.0
14:01:26,475084.0,0.0,0.0
14:01:26,475204.0,0.0,0.0
14:01:26,475133.0,0.0,0.0
14:01:26,475224.0,0.0,0.0
14:01:26,475239.0,0.0,0.0
14:01:26,475163.0,0.0,0.0
14:01:26,475246.0,0.0,0.0
14:01:26,475162.0,0.0,0.0
14:01:26,475237.0,0.0,0.0
14:01:26,475238.0,0.0,0.0
14:01:26,475166.0,0.0,0.0
14:01:26,475244.0,0.0,0.0
14:01:26,475201.0,0.0,0.0
14:01:26,475188.0,0.0,0.0
14:01:26,475171.0,0.0,0.0
14:01:26,475156.0,0.0,0.0
14:01:26,475258.0,0.0,0.0
14:01:26,475127.0,0.0,0.0
14:01:26,475139.0,0.0,0.0
14:01:26,475182.0,0.0,0.0
14:01:26,475071.0,0.0,0.0
14:01:26,475135.0,0.0,0.0
14:01:26,475013.0,0.0,0.0
14:01:26,475032.0,0.0,0.0
14:01:26,475044.0,0.0,0.0
14:01:26,474944.0,0.0,0.0
14:01:26,474987.0,0.0,0.0
14:01:26,474909.0,0.0,0.0
14:01:26,474974.0,0.0,0.0
14:01:26,475012.0,0.0,0.0
14:01:26,474989.0,0.0,0.0
14:01:26,475096.0,0.0,0.0
14:01:26,475013.0,0.0,0.0
14:01:26,475048.0,0.0,0.0
14:01:26,475080.0,0.0,0.0
14:01:26,475066.0,0.0,0.0
14:01:26,475216.0,0.0,0.0
14:01:26,475132.0,0.0,0.0
14:01:26,475169.0,0.0,0.0
14:01:26,475164.0,0.0,0.0
14:01:26,475084.0,0.0,0.0
14:01:26,475166.0,0.0,0.0
14:01:26,475089.0,0.0,0.0
14:01:26,475250.0,0.0,0.0
14:01:26,475348.0,0.0,0.0
14:01:26,475368.0,0.0,0.0
14:01:26,475419.0,0.0,0.0
14:01:26,475156.0,0.0,0.0
14:01:26,475165.0,0.0,0.0
14:01:26,475238.0,0.0,0.0
14:01:26,475230.0,0.0,0.0
14:01:26,475353.0,0.0,0.0
14:01:26,475288.0,0.0,0.0
14:01:26,475360.0,0.0,0.0
14:01:26,475341.0,0.0,0.0
14:01:26,475316.0,0.0,0.0
14:01:26,475437.0,0.0,0.0
14:01:26,475371.0,0.0,0.0
14:01:26,475377.0,0.0,0.0
14:01:26,475394.0,0.0,0.0
14:01:26,475381.0,0.0,0.0
14:01:26,475460.0,0.0,0.0
14:01:26,475416.0,0.0,0.0
14:01:26,475470.0,0.0,0.0
14:01:26,475444.0,0.0,0.0
14:01:26,475373.0,0.0,0.0
14:01:26,475453.0,0.0,0.0
14:01:26,475385.0,0.0,0.0
14:01:26,475444.0,0.0,0.0
14:01:26,475475.0,0.0,0.0
14:01:26,475457.0,0.0,0.0
14:01:26,475543.0,0.0,0.0
14:01:26,475508.0,0.0,0.0
14:01:26,475578.0,0.0,0.0
14:01:26,475612.0,0.0,0.0
14:01:26,475612.0,0.0,0.0
14:01:26,475734.0,0.0,0.0
14:01:26,475662.0,0.0,0.0
14:01:26,475736.0,0.0,0.0
14:01:26,475781.0,0.0,0.0
14:01:26,475744.0,0.0,0.0
14:01:26,475860.0,0.0,0.0
14:01:26,475805.0,0.0,0.0
14:01:26,475853.0,0.0,0.0
14:01:26,475854.0,0.0,0.0
14:01:26,475811.0,0.0,0.0
14:01:26,475887.0,0.0,0.0
14:01:26,475838.0,0.0,0.0
14:01:26,475937.0,0.0,0.0
14:01:26,475971.0,0.0,0.0
14:01:26,475938.0,0.0,0.0
14:01:26,475998.0,0.0,0.0
14:01:26,475911.0,0.0,0.0
14:01:26,476008.0,0.0,0.0
14:01:26,476015.0,0.0,0.0
14:01:26,475972.0,0.0,0.0
14:01:26,476086.0,0.0,0.0
14:01:26,476019.0,0.0,0.0
14:01:26,476060.0,0.0,0.0
14:01:26,476105.0,0.0,0.0
14:01:26,476141.0,0.0,0.0
14:01:26,476260.0,0.0,0.0
14:01:26,476212.0,0.0,0.0
14:01:26,476281.0,0.0,0.0
14:01:26,476266.0,0.0,0.0
14:01:26,476224.0,0.0,0.0
14:01:26,476334.0,0.0,0.0
14:01:27,476262.0,0.0,0.0
14:01:27,476331.0,0.0,0.0
14:01:27,476306.0,0.0,0.0
14:01:27,476233.0,0.0,0.0
14:01:27,476313.0,0.0,0.0
14:01:27,476209.0,0.0,0.0
14:01:27,476228.0,0.0,0.0
14:01:27,476257.0,0.0,0.0
14:01:27,476310.0,0.0,0.0
14:01:27,476462.0,0.0,0.0
14:01:27,476396.0,0.0,0.0
14:01:27,476288.0,0.0,0.0
14:01:27,476188.0,0.0,0.0
14:01:27,476166.0,0.0,0.0
14:01:27,476293.0,0.0,0.0
14:01:27,476195.0,0.0,0.0
14:01:27,476246.0,0.0,0.0
14:01:27,476243.0,0.0,0.0
14:01:27,476174.0,0.0,0.0
14:01:27,476291.0,0.0,0.0
14:01:27,476251.0,0.0,0.0
14:01:27,476305.0,0.0,0.0
14:01:27,476326.0,0.0,0.0
14:01:27,476253.0,0.0,0.0
14:01:27,476374.0,0.0,0.0
14:01:27,476291.0,0.0,0.0
14:01:27,476340.0,0.0,0.0
14:01:27,476381.0,0.0,0.0
14:01:27,476331.0,0.0,0.0
14:01:27,476440.0,0.0,0.0
14:01:27,476363.0,0.0,0.0
14:01:27,476471.0,0.0,0.0
14:01:27,476488.0,0.0,0.0
14:01:27,476433.0,0.0,0.0
14:01:27,476498.0,0.0,0.0
14:01:27,476396.0,0.0,0.0
14:01:27,476504.0,0.0,0.0
14:01:27,476579.0,0.0,0.0
14:01:27,476540.0,0.0,0.0
14:01:27,476662.0,0.0,0.0
14:01:27,476558.0,0.0,0.0
14:01:27,476540.0,0.0,0.0
14:01:27,476485.0,0.0,0.0
14:01:27,476334.0,0.0,0.0
14:01:27,476368.0,0.0,0.0
14:01:27,476176.0,0.0,0.0
14:01:27,476208.0,0.0,0.0
14:01:27,476205.0,0.0,0.0
14:01:27,476079.0,0.0,0.0
14:01:27,476129.0,0.0,0.0
14:01:27,476019.0,0.0,0.0
14:01:27,475980.0,0.0,0.0
14:01:27,475942.0,0.0,0.0
14:01:27,476089.0,0.0,0.0
14:01:27,476331.0,0.0,0.0
14:01:27,476400.0,0.0,0.0
14:01:27,476244.0,0.0,0.0
14:01:27,476183.0,0.0,0.0
14:01:27,476119.0,0.0,0.0
14:01:27,476215.0,0.0,0.0
14:01:27,476118.0,0.0,0.0
14:01:27,476135.0,0.0,0.0
14:01:27,476109.0,0.0,0.0
14:01:27,476034.0,0.0,0.0
14:01:27,476170.0,0.0,0.0
14:01:27,476086.0,0.0,0.0
14:01:27,476138.0,0.0,0.0
14:01:27,476154.0,0.0,0.0
14:01:27,476064.0,0.0,0.0
14:01:27,476124.0,0.0,0.0
14:01:27,476048.0,0.0,0.0
14:01:27,476080.0,0.0,0.0
14:01:27,475984.0,0.0,0.0
14:01:27,475883.0,0.0,0.0
14:01:27,475910.0,0.0,0.0
14:01:27,475708.0,0.0,0.0
14:01:27,475721.0,0.0,0.0
14:01:27,475679.0,0.0,0.0
14:01:27,475594.0,0.0,0.0
14:01:27,475719.0,0.0,0.0
14:01:27,475686.0,0.0,0.0
14:01:27,475830.0,0.0,0.0
14:01:27,475694.0,0.0,0.0
14:01:27,475475.0,0.0,0.0
14:01:27,475499.0,0.0,0.0
14:01:27,475436.0,0.0,0.0
14:01:27,475489.0,0.0,0.0
14:01:27,475486.0,0.0,0.0
14:01:27,475448.0,0.0,0.0
14:01:27,475630.0,0.0,0.0
14:01:27,475657.0,0.0,0.0
14:01:27,475829.0,0.0,0.0
14:01:27,475949.0,0.0,0.0
14:01:27,475955.0,0.0,0.0
14:01:27,476094.0,0.0,0.0
14:01:27,476080.0,0.0,0.0
14:01:27,476163.0,0.0,0.0
14:01:27,476292.0,0.0,0.0
14:01:27,476334.0,0.0,0.0
14:01:27,476411.0,0.0,0.0
14:01:27,476475.0,0.0,0.0
14:01:27,476572.0,0.0,0.0
14:01:27,476714.0,0.0,0.0
14:01:27,476647.0,0.0,0.0
14:01:27,476711.0,0.0,0.0
14:01:27,476615.0,0.0,0.0
14:01:27,476599.0,0.0,0.0
14:01:27,476649.0,0.0,0.0
14:01:27,476614.0,0.0,0.0
14:01:27,476791.0,0.0,0.0
14:01:27,476779.0,0.0,0.0
14:01:27,476826.0,0.0,0.0
14:01:27,476959.0,0.0,0.0
14:01:27,476918.0,0.0,0.0
14:01:27,477016.0,0.0,0.0
14:01:27,476961.0,0.0,0.0
14:01:27,476969.0,0.0,0.0
14:01:27,477013.0,0.0,0.0
14:01:27,476937.0,0.0,0.0
14:01:27,477038.0,0.0,0.0
14:01:27,476976.0,0.0,0.0
14:01:27,476953.0,0.0,0.0
14:01:27,477015.0,0.0,0.0
14:01:27,476958.0,0.0,0.0
14:01:27,477034.0,0.0,0.0
14:01:28,476964.0,0.0,0.0
14:01:28,476958.0,0.0,0.0
14:01:28,476966.0,0.0,0.0
14:01:28,476910.0,0.0,0.0
14:01:28,477022.0,0.0,0.0
14:01:28,476959.0,0.0,0.0
14:01:28,476965.0,0.0,0.0
14:01:28,476994.0,0.0,0.0
14:01:28,476870.0,0.0,0.0
14:01:28,476910.0,0.0,0.0
14:01:28,476835.0,0.0,0.0
14:01:28,476913.0,0.0,0.0
14:01:28,476916.0,0.0,0.0
14:01:28,476808.0,0.0,0.0
14:01:28,476874.0,0.0,0.0
14:01:28,476834.0,0.0,0.0
14:01:28,476818.0,0.0,0.0
14:01:28,476805.0,0.0,0.0
14:01:28,476717.0,0.0,0.0
14:01:28,476790.0,0.0,0.0
14:01:28,476717.0,0.0,0.0
14:01:28,476813.0,0.0,0.0
14:01:28,476819.0,0.0,0.0
14:01:28,476766.0,0.0,0.0
14:01:28,476903.0,0.0,0.0
14:01:28,476941.0,0.0,0.0
14:01:28,477081.0,0.0,0.0
14:01:28,477227.0,0.0,0.0
14:01:28,477047.0,0.0,0.0
14:01:28,476934.0,0.0,0.0
14:01:28,476806.0,0.0,0.0
14:01:28,476818.0,0.0,0.0
14:01:28,476843.0,0.0,0.0
14:01:28,476769.0,0.0,0.0
14:01:28,476824.0,0.0,0.0
14:01:28,476821.0,0.0,0.0
14:01:28,476946.0,0.0,0.0
14:01:28,477038.0,0.0,0.0
14:01:28,476944.0,0.0,0.0
14:01:28,476955.0,0.0,0.0
14:01:28,476860.0,0.0,0.0
14:01:28,476912.0,0.0,0.0
14:01:28,476998.0,0.0,0.0
14:01:28,476949.0,0.0,0.0
14:01:28,477033.0,0.0,0.0
14:01:28,476991.0,0.0,0.0
14:01:28,477076.0,0.0,0.0
14:01:28,477081.0,0.0,0.0
14:01:28,476658.0,0.0,0.0
14:01:28,477148.0,0.0,0.0
14:01:28,477112.0,0.0,0.0
14:01:28,476873.0,0.0,0.0
14:01:28,476831.0,0.0,0.0
14:01:28,476701.0,0.0,0.0
14:01:28,476901.0,0.0,0.0
14:01:28,477050.0,0.0,0.0
14:01:28,477137.0,0.0,0.0
14:01:28,477271.0,0.0,0.0
14:01:28,477230.0,0.0,0.0
14:01:28,477354.0,0.0,0.0
14:01:28,477299.0,0.0,0.0
14:01:28,477293.0,0.0,0.0
14:01:28,477534.0,0.0,0.0
14:01:28,477498.0,0.0,0.0
14:01:28,477559.0,0.0,0.0
14:01:28,477379.0,0.0,0.0
14:01:28,477406.0,0.0,0.0
14:01:28,477501.0,0.0,0.0
14:01:28,477378.0,0.0,0.0
14:01:28,477394.0,0.0,0.0
14:01:28,477304.0,0.0,0.0
14:01:28,477338.0,0.0,0.0
14:01:28,477407.0,0.0,0.0
14:01:28,477386.0,0.0,0.0
14:01:28,477536.0,0.0,0.0
14:01:28,477519.0,0.0,0.0
14:01:28,477633.0,0.0,0.0
14:01:28,477673.0,0.0,0.0
14:01:28,477478.0,0.0,0.0
14:01:28,477457.0,0.0,0.0
14:01:28,477348.0,0.0,0.0
14:01:28,477267.0,0.0,0.0
14:01:28,477070.0,0.0,0.0
14:01:28,476779.0,0.0,0.0
14:01:28,476709.0,0.0,0.0
14:01:28,476515.0,0.0,0.0
14:01:28,476436.0,0.0,0.0
14:01:28,476289.0,0.0,0.0
14:01:28,476105.0,0.0,0.0
14:01:28,476373.0,0.0,0.0
14:01:28,476381.0,0.0,0.0
14:01:28,476246.0,0.0,0.0
14:01:28,476126.0,0.0,0.0
14:01:28,475848.0,0.0,0.0
14:01:28,475801.0,0.0,0.0
14:01:28,475580.0,0.0,0.0
14:01:28,475546.0,0.0,0.0
14:01:28,475606.0,0.0,0.0
14:01:28,475538.0,0.0,0.0
14:01:28,475416.0,0.0,0.0
14:01:28,474838.0,0.0,0.0
14:01:28,474439.0,0.0,0.0
14:01:28,474407.0,0.0,0.0
14:01:28,474157.0,0.0,0.0
14:01:28,474054.0,0.0,0.0
14:01:28,473938.0,0.0,0.0
14:01:28,473741.0,0.0,0.0
14:01:28,473743.0,0.0,0.0
14:01:28,473516.0,0.0,0.0
14:01:28,473522.0,0.0,0.0
14:01:28,473356.0,0.0,0.0
14:01:28,472921.0,0.0,0.0
14:01:28,472848.0,0.0,0.0
14:01:28,472629.0,0.0,0.0
14:01:28,472558.0,0.0,0.0
14:01:28,472265.0,0.0,0.0
14:01:28,472044.0,0.0,0.0
14:01:28,471851.0,0.0,0.0
14:01:28,471596.0,0.0,0.0
14:01:28,471661.0,0.0,0.0
14:01:28,471538.0,0.0,0.0
14:01:28,471474.0,0.0,0.0
14:01:28,471461.0,0.0,0.0
14:01:28,471256.0,0.0,0.0
14:01:28,471082.0,0.0,0.0
14:01:29,470934.0,0.0,0.0
14:01:29,470868.0,0.0,0.0
14:01:29,470848.0,0.0,0.0
14:01:29,470703.0,0.0,0.0
14:01:29,470764.0,0.0,0.0
14:01:29,470611.0,0.0,0.0
14:01:29,470583.0,0.0,0.0
14:01:29,470772.0,0.0,0.0
14:01:29,470819.0,0.0,0.0
14:01:29,470761.0,0.0,0.0
14:01:29,470591.0,0.0,0.0
14:01:29,470439.0,0.0,0.0
14:01:29,470364.0,0.0,0.0
14:01:29,470251.0,0.0,0.0
14:01:29,470419.0,0.0,0.0
14:01:29,470343.0,0.0,0.0
14:01:29,470339.0,0.0,0.0
14:01:29,470357.0,0.0,0.0
14:01:29,470240.0,0.0,0.0
14:01:29,470346.0,0.0,0.0
14:01:29,470232.0,0.0,0.0
14:01:29,470256.0,0.0,0.0
14:01:29,470181.0,0.0,0.0
14:01:29,469967.0,0.0,0.0
14:01:29,469943.0,0.0,0.0
14:01:29,469793.0,0.0,0.0
14:01:29,469938.0,0.0,0.0
14:01:29,470078.0,0.0,0.0
14:01:29,470001.0,0.0,0.0
14:01:29,470091.0,0.0,0.0
14:01:29,470054.0,0.0,0.0
14:01:29,470091.0,0.0,0.0
14:01:29,470231.0,0.0,0.0
14:01:29,470298.0,0.0,0.0
14:01:29,470333.0,0.0,0.0
14:01:29,470334.0,0.0,0.0
14:01:29,470178.0,0.0,0.0
14:01:29,470201.0,0.0,0.0
14:01:29,470020.0,0.0,0.0
14:01:29,470056.0,0.0,0.0
14:01:29,470039.0,0.0,0.0
14:01:29,470091.0,0.0,0.0
14:01:29,470147.0,0.0,0.0
14:01:29,470035.0,0.0,0.0
14:01:29,470301.0,0.0,0.0
14:01:29,470654.0,0.0,0.0
14:01:29,470819.0,0.0,0.0
14:01:29,470473.0,0.0,0.0
14:01:29,470108.0,0.0,0.0
14:01:29,470065.0,0.0,0.0
14:01:29,469716.0,0.0,0.0
14:01:29,469373.0,0.0,0.0
14:01:29,469249.0,0.0,0.0
14:01:29,468951.0,0.0,0.0
14:01:29,468883.0,0.0,0.0
14:01:29,468667.0,0.0,0.0
14:01:29,468511.0,0.0,0.0
14:01:29,468514.0,0.0,0.0
14:01:29,468278.0,0.0,0.0
14:01:29,468199.0,0.0,0.0
14:01:29,468132.0,0.0,0.0
14:01:29,467888.0,0.0,0.0
14:01:29,467925.0,0.0,0.0
14:01:29,467735.0,0.0,0.0
14:01:29,467616.0,0.0,0.0
14:01:29,467275.0,0.0,0.0
14:01:29,467226.0,0.0,0.0
14:01:29,467296.0,0.0,0.0
14:01:29,466708.0,0.0,0.0
14:01:29,466551.0,0.0,0.0
14:01:29,466584.0,0.0,0.0
14:01:29,466192.0,0.0,0.0
14:01:29,466026.0,0.0,0.0
14:01:29,466034.0,0.0,0.0
14:01:29,465999.0,0.0,0.0
14:01:29,465875.0,0.0,0.0
14:01:29,465943.0,0.0,0.0
14:01:29,466046.0,0.0,0.0
14:01:29,465937.0,0.0,0.0
14:01:29,466060.0,0.0,0.0
14:01:29,466149.0,0.0,0.0
14:01:29,466121.0,0.0,0.0
14:01:29,466214.0,0.0,0.0
14:01:29,466174.0,0.0,0.0
14:01:29,466331.0,0.0,0.0
14:01:29,466398.0,0.0,0.0
14:01:29,466419.0,0.0,0.0
14:01:29,466497.0,0.0,0.0
14:01:29,466542.0,0.0,0.0
14:01:29,466965.0,0.0,0.0
14:01:29,467170.0,0.0,0.0
14:01:29,467413.0,0.0,0.0
14:01:29,467656.0,0.0,0.0
14:01:29,467687.0,0.0,0.0
14:01:29,467887.0,0.0,0.0
14:01:29,467979.0,0.0,0.0
14:01:29,468198.0,0.0,0.0
14:01:29,468531.0,0.0,0.0
14:01:29,468719.0,0.0,0.0
14:01:29,469038.0,0.0,0.0
14:01:29,469168.0,0.0,0.0
14:01:29,469311.0,0.0,0.0
14:01:29,469559.0,0.0,0.0
14:01:29,469529.0,0.0,0.0
14:01:29,469713.0,0.0,0.0
14:01:29,469859.0,0.0,0.0
14:01:29,469973.0,0.0,0.0
14:01:29,470149.0,0.0,0.0
14:01:29,470162.0,0.0,0.0
14:01:29,470264.0,0.0,0.0
14:01:29,470306.0,0.0,0.0
14:01:29,470366.0,0.0,0.0
14:01:29,470493.0,0.0,0.0
14:01:29,470443.0,0.0,0.0
14:01:29,470521.0,0.0,0.0
14:01:29,470518.0,0.0,0.0
14:01:29,470679.0,0.0,0.0
14:01:29,470926.0,0.0,0.0
14:01:29,470963.0,0.0,0.0
14:01:29,471051.0,0.0,0.0
14:01:29,470932.0,0.0,0.0
14:01:29,470925.0,0.0,0.0
14:01:29,471094.0,0.0,0.0
14:01:29,471103.0,0.0,0.0
14:01:29,471246.0,0.0,0.0
14:01:30,471226.0,0.0,0.0
14:01:30,471201.0,0.0,0.0
14:01:30,471358.0,0.0,0.0
14:01:30,471337.0,0.0,0.0
14:01:30,471492.0,0.0,0.0
14:01:30,471546.0,0.0,0.0
14:01:30,471604.0,0.0,0.0
14:01:30,471763.0,0.0,0.0
14:01:30,471756.0,0.0,0.0
14:01:30,471866.0,0.0,0.0
14:01:30,471874.0,0.0,0.0
14:01:30,472009.0,0.0,0.0
14:01:30,472241.0,0.0,0.0
14:01:30,472156.0,0.0,0.0
14:01:30,472310.0,0.0,0.0
14:01:30,472579.0,0.0,0.0
14:01:30,472669.0,0.0,0.0
14:01:30,472810.0,0.0,0.0
14:01:30,472826.0,0.0,0.0
14:01:30,472981.0,0.0,0.0
14:01:30,473096.0,0.0,0.0
14:01:30,473151.0,0.0,0.0
14:01:30,473351.0,0.0,0.0
14:01:30,473393.0,0.0,0.0
14:01:30,473658.0,0.0,0.0
14:01:30,473813.0,0.0,0.0
14:01:30,473919.0,0.0,0.0
14:01:30,474113.0,0.0,0.0
14:01:30,474145.0,0.0,0.0
14:01:30,474352.0,0.0,0.0
14:01:30,474515.0,0.0,0.0
14:01:30,474625.0,0.0,0.0
14:01:30,474873.0,0.0,0.0
14:01:30,474905.0,0.0,0.0
14:01:30,475086.0,0.0,0.0
14:01:30,475194.0,0.0,0.0
14:01:30,475276.0,0.0,0.0
14:01:30,475518.0,0.0,0.0
14:01:30,475533.0,0.0,0.0
14:01:30,475718.0,0.0,0.0
14:01:30,475799.0,0.0,0.0
14:01:30,475764.0,0.0,0.0
14:01:30,475886.0,0.0,0.0
14:01:30,475838.0,0.0,0.0
14:01:30,475953.0,0.0,0.0
14:01:30,476026.0,0.0,0.0
14:01:30,476034.0,0.0,0.0
14:01:30,476123.0,0.0,0.0
14:01:30,476063.0,0.0,0.0
14:01:30,476166.0,0.0,0.0
14:01:30,476198.0,0.0,0.0
14:01:30,476249.0,0.0,0.0
14:01:30,476368.0,0.0,0.0
14:01:30,476340.0,0.0,0.0
14:01:30,476549.0,0.0,0.0
14:01:30,476613.0,0.0,0.0
14:01:30,476663.0,0.0,0.0
14:01:30,476801.0,0.0,0.0
14:01:30,476726.0,0.0,0.0
14:01:30,476808.0,0.0,0.0
14:01:30,476809.0,0.0,0.0
14:01:30,476889.0,0.0,0.0
14:01:30,477143.0,0.0,0.0
14:01:30,477131.0,0.0,0.0
14:01:30,477324.0,0.0,0.0
14:01:30,477230.0,0.0,0.0
14:01:30,477108.0,0.0,0.0
14:01:30,477203.0,0.0,0.0
14:01:30,477213.0,0.0,0.0
14:01:30,477411.0,0.0,0.0
14:01:30,477421.0,0.0,0.0
14:01:30,477434.0,0.0,0.0
14:01:30,477541.0,0.0,0.0
14:01:30,477455.0,0.0,0.0
14:01:30,477547.0,0.0,0.0
14:01:30,477564.0,0.0,0.0
14:01:30,477607.0,0.0,0.0
14:01:30,477688.0,0.0,0.0
14:01:30,477574.0,0.0,0.0
14:01:30,477689.0,0.0,0.0
14:01:30,477627.0,0.0,0.0
14:01:30,477624.0,0.0,0.0
14:01:30,477754.0,0.0,0.0
14:01:30,477695.0,0.0,0.0
14:01:30,477788.0,0.0,0.0
14:01:30,477741.0,0.0,0.0
14:01:30,477700.0,0.0,0.0
14:01:30,477756.0,0.0,0.0
14:01:30,477637.0,0.0,0.0
14:01:30,477709.0,0.0,0.0
14:01:30,477657.0,0.0,0.0
14:01:30,477582.0,0.0,0.0
14:01:30,477661.0,0.0,0.0
14:01:30,477574.0,0.0,0.0
14:01:30,477659.0,0.0,0.0
14:01:30,477588.0,0.0,0.0
14:01:30,477543.0,0.0,0.0
14:01:30,477594.0,0.0,0.0
14:01:30,477461.0,0.0,0.0
14:01:30,477513.0,0.0,0.0
14:01:30,477456.0,0.0,0.0
14:01:30,477459.0,0.0,0.0
14:01:30,477538.0,0.0,0.0
14:01:30,477442.0,0.0,0.0
14:01:30,477478.0,0.0,0.0
14:01:30,477399.0,0.0,0.0
14:01:30,477391.0,0.0,0.0
14:01:30,477403.0,0.0,0.0
14:01:30,477293.0,0.0,0.0
14:01:30,477391.0,0.0,0.0
14:01:30,477334.0,0.0,0.0
14:01:30,477288.0,0.0,0.0
14:01:30,477306.0,0.0,0.0
14:01:30,477184.0,0.0,0.0
14:01:30,477286.0,0.0,0.0
14:01:30,477229.0,0.0,0.0
14:01:30,477179.0,0.0,0.0
14:01:30,477259.0,0.0,0.0
14:01:30,477128.0,0.0,0.0
14:01:30,477150.0,0.0,0.0
14:01:30,477114.0,0.0,0.0
14:01:30,477054.0,0.0,0.0
14:01:30,477120.0,0.0,0.0
14:01:30,477001.0,0.0,0.0
14:01:30,477045.0,0.0,0.0
14:01:30,476944.0,0.0,0.0
14:01:31,476854.0,0.0,0.0
14:01:31,476913.0,0.0,0.0
14:01:31,476775.0,0.0,0.0
14:01:31,476861.0,0.0,0.0
14:01:31,476799.0,0.0,0.0
14:01:31,476771.0,0.0,0.0
14:01:31,476920.0,0.0,0.0
14:01:31,476830.0,0.0,0.0
14:01:31,476844.0,0.0,0.0
14:01:31,476696.0,0.0,0.0
14:01:31,476518.0,0.0,0.0
14:01:31,476598.0,0.0,0.0
14:01:31,476489.0,0.0,0.0
14:01:31,476561.0,0.0,0.0
14:01:31,476560.0,0.0,0.0
14:01:31,476491.0,0.0,0.0
14:01:31,476563.0,0.0,0.0
14:01:31,476454.0,0.0,0.0
14:01:31,476504.0,0.0,0.0
14:01:31,476448.0,0.0,0.0
14:01:31,476384.0,0.0,0.0
14:01:31,476423.0,0.0,0.0
14:01:31,476291.0,0.0,0.0
14:01:31,476323.0,0.0,0.0
14:01:31,476331.0,0.0,0.0
14:01:31,476284.0,0.0,0.0
14:01:31,476397.0,0.0,0.0
14:01:31,476278.0,0.0,0.0
14:01:31,476373.0,0.0,0.0
14:01:31,476381.0,0.0,0.0
14:01:31,476294.0,0.0,0.0
14:01:31,476374.0,0.0,0.0
14:01:31,476250.0,0.0,0.0
14:01:31,476358.0,0.0,0.0
14:01:31,476401.0,0.0,0.0
14:01:31,476373.0,0.0,0.0
14:01:31,476469.0,0.0,0.0
14:01:31,476383.0,0.0,0.0
14:01:31,476463.0,0.0,0.0
14:01:31,476471.0,0.0,0.0
14:01:31,476424.0,0.0,0.0
14:01:31,476540.0,0.0,0.0
14:01:31,476454.0,0.0,0.0
14:01:31,476533.0,0.0,0.0
14:01:31,476548.0,0.0,0.0
14:01:31,476482.0,0.0,0.0
14:01:31,476551.0,0.0,0.0
14:01:31,476437.0,0.0,0.0
14:01:31,476476.0,0.0,0.0
14:01:31,476456.0,0.0,0.0
14:01:31,476346.0,0.0,0.0
14:01:31,476418.0,0.0,0.0
14:01:31,476319.0,0.0,0.0
14:01:31,476359.0,0.0,0.0
14:01:31,476390.0,0.0,0.0
14:01:31,476329.0,0.0,0.0
14:01:31,476403.0,0.0,0.0
14:01:31,476296.0,0.0,0.0
14:01:31,476342.0,0.0,0.0
14:01:31,476353.0,0.0,0.0
14:01:31,476294.0,0.0,0.0
14:01:31,476409.0,0.0,0.0
14:01:31,476287.0,0.0,0.0
14:01:31,476351.0,0.0,0.0
14:01:31,476363.0,0.0,0.0
14:01:31,476273.0,0.0,0.0
14:01:31,476352.0,0.0,0.0
14:01:31,476256.0,0.0,0.0
14:01:31,476344.0,0.0,0.0
14:01:31,476334.0,0.0,0.0
14:01:31,476183.0,0.0,0.0
14:01:31,476240.0,0.0,0.0
14:01:31,476153.0,0.0,0.0
14:01:31,476271.0,0.0,0.0
14:01:31,476359.0,0.0,0.0
14:01:31,476316.0,0.0,0.0
14:01:31,476387.0,0.0,0.0
14:01:31,476169.0,0.0,0.0
14:01:31,476128.0,0.0,0.0
14:01:31,476153.0,0.0,0.0
14:01:31,476126.0,0.0,0.0
14:01:31,476227.0,0.0,0.0
14:01:31,476119.0,0.0,0.0
14:01:31,476177.0,0.0,0.0
14:01:31,476206.0,0.0,0.0
14:01:31,476168.0,0.0,0.0
14:01:31,476306.0,0.0,0.0
14:01:31,476210.0,0.0,0.0
14:01:31,476192.0,0.0,0.0
14:01:31,476179.0,0.0,0.0
14:01:31,476069.0,0.0,0.0
14:01:31,476116.0,0.0,0.0
14:01:31,476004.0,0.0,0.0
14:01:31,476056.0,0.0,0.0
14:01:31,476072.0,0.0,0.0
14:01:31,475968.0,0.0,0.0
14:01:31,476047.0,0.0,0.0
14:01:31,475922.0,0.0,0.0
14:01:31,475969.0,0.0,0.0
14:01:31,475994.0,0.0,0.0
14:01:31,475917.0,0.0,0.0
14:01:31,475961.0,0.0,0.0
14:01:31,475888.0,0.0,0.0
14:01:31,475917.0,0.0,0.0
14:01:31,475946.0,0.0,0.0
14:01:31,475875.0,0.0,0.0
14:01:31,475986.0,0.0,0.0
14:01:31,475897.0,0.0,0.0
14:01:31,475916.0,0.0,0.0
14:01:31,475910.0,0.0,0.0
14:01:31,475819.0,0.0,0.0
14:01:31,475895.0,0.0,0.0
14:01:31,475838.0,0.0,0.0
14:01:31,475871.0,0.0,0.0
14:01:31,475861.0,0.0,0.0
14:01:31,475811.0,0.0,0.0
14:01:31,475884.0,0.0,0.0
14:01:31,475804.0,0.0,0.0
14:01:31,475823.0,0.0,0.0
14:01:31,475856.0,0.0,0.0
14:01:31,475785.0,0.0,0.0
14:01:31,475858.0,0.0,0.0
14:01:31,475760.0,0.0,0.0
14:01:31,475769.0,0.0,0.0
14:01:31,475789.0,0.0,0.0
14:01:32,475714.0,0.0,0.0
14:01:32,475796.0,0.0,0.0
14:01:32,475716.0,0.0,0.0
14:01:32,475741.0,0.0,0.0
14:01:32,475757.0,0.0,0.0
14:01:32,475683.0,0.0,0.0
14:01:32,475767.0,0.0,0.0
14:01:32,475699.0,0.0,0.0
14:01:32,475715.0,0.0,0.0
14:01:32,475764.0,0.0,0.0
14:01:32,475679.0,0.0,0.0
14:01:32,475757.0,0.0,0.0
14:01:32,475636.0,0.0,0.0
14:01:32,475656.0,0.0,0.0
14:01:32,475691.0,0.0,0.0
14:01:32,475595.0,0.0,0.0
14:01:32,475670.0,0.0,0.0
14:01:32,475681.0,0.0,0.0
14:01:32,475806.0,0.0,0.0
14:01:32,475868.0,0.0,0.0
14:01:32,475639.0,0.0,0.0
14:01:32,475660.0,0.0,0.0
14:01:32,475588.0,0.0,0.0
14:01:32,475619.0,0.0,0.0
14:01:32,475676.0,0.0,0.0
14:01:32,475574.0,0.0,0.0
14:01:32,475681.0,0.0,0.0
14:01:32,475654.0,0.0,0.0
14:01:32,475678.0,0.0,0.0
14:01:32,475716.0,0.0,0.0
14:01:32,475632.0,0.0,0.0
14:01:32,475722.0,0.0,0.0
14:01:32,475647.0,0.0,0.0
14:01:32,475678.0,0.0,0.0
14:01:32,475758.0,0.0,0.0
14:01:32,475651.0,0.0,0.0
14:01:32,475703.0,0.0,0.0
14:01:32,475624.0,0.0,0.0
14:01:32,475664.0,0.0,0.0
14:01:32,475741.0,0.0,0.0
14:01:32,475649.0,0.0,0.0
14:01:32,475743.0,0.0,0.0
14:01:32,475659.0,0.0,0.0
14:01:32,475676.0,0.0,0.0
14:01:32,475705.0,0.0,0.0
14:01:32,475639.0,0.0,0.0
14:01:32,475748.0,0.0,0.0
14:01:32,475678.0,0.0,0.0
14:01:32,475725.0,0.0,0.0
14:01:32,475746.0,0.0,0.0
14:01:32,475636.0,0.0,0.0
14:01:32,475742.0,0.0,0.0
14:01:32,475706.0,0.0,0.0
14:01:32,475777.0,0.0,0.0
14:01:32,475829.0,0.0,0.0
14:01:32,475678.0,0.0,0.0
14:01:32,475755.0,0.0,0.0
14:01:32,475691.0,0.0,0.0
14:01:32,475666.0,0.0,0.0
14:01:32,475731.0,0.0,0.0
14:01:32,475630.0,0.0,0.0
14:01:32,475746.0,0.0,0.0
14:01:32,475658.0,0.0,0.0
14:01:32,475656.0,0.0,0.0
14:01:32,475689.0,0.0,0.0
14:01:32,475603.0,0.0,0.0
14:01:32,475693.0,0.0,0.0
14:01:32,475595.0,0.0,0.0
14:01:32,475579.0,0.0,0.0
14:01:32,475590.0,0.0,0.0
14:01:32,475498.0,0.0,0.0
14:01:32,475601.0,0.0,0.0
14:01:32,475517.0,0.0,0.0
14:01:32,475479.0,0.0,0.0
14:01:32,475546.0,0.0,0.0
14:01:32,475444.0,0.0,0.0
14:01:32,475513.0,0.0,0.0
14:01:32,475429.0,0.0,0.0
14:01:32,475456.0,0.0,0.0
14:01:32,475496.0,0.0,0.0
14:01:32,475379.0,0.0,0.0
14:01:32,475440.0,0.0,0.0
14:01:32,475354.0,0.0,0.0
14:01:32,475359.0,0.0,0.0
14:01:32,475401.0,0.0,0.0
14:01:32,475373.0,0.0,0.0
14:01:32,475556.0,0.0,0.0
14:01:32,475553.0,0.0,0.0
14:01:32,475578.0,0.0,0.0
14:01:32,475421.0,0.0,0.0
14:01:32,475231.0,0.0,0.0
14:01:32,475349.0,0.0,0.0
14:01:32,475286.0,0.0,0.0
14:01:32,475298.0,0.0,0.0
14:01:32,475327.0,0.0,0.0
14:01:32,475219.0,0.0,0.0
14:01:32,475326.0,0.0,0.0
14:01:32,475292.0,0.0,0.0
14:01:32,475330.0,0.0,0.0
14:01:32,475348.0,0.0,0.0
14:01:32,475223.0,0.0,0.0
14:01:32,475318.0,0.0,0.0
14:01:32,475212.0,0.0,0.0
14:01:32,475199.0,0.0,0.0
14:01:32,475251.0,0.0,0.0
14:01:32,475128.0,0.0,0.0
14:01:32,475167.0,0.0,0.0
14:01:32,475101.0,0.0,0.0
14:01:32,475099.0,0.0,0.0
14:01:32,475108.0,0.0,0.0
14:01:32,475014.0,0.0,0.0
14:01:32,475143.0,0.0,0.0
14:01:32,475007.0,0.0,0.0
14:01:32,475038.0,0.0,0.0
14:01:32,475088.0,0.0,0.0
14:01:32,475028.0,0.0,0.0
14:01:32,475175.0,0.0,0.0
14:01:32,475080.0,0.0,0.0
14:01:32,475113.0,0.0,0.0
14:01:32,475162.0,0.0,0.0
14:01:32,475047.0,0.0,0.0
14:01:32,475104.0,0.0,0.0
14:01:32,474998.0,0.0,0.0
14:01:32,475029.0,0.0,0.0
14:01:32,475051.0,0.0,0.0
14:01:33,474923.0,0.0,0.0
14:01:33,475006.0,0.0,0.0
14:01:33,474908.0,0.0,0.0
14:01:33,474911.0,0.0,0.0
14:01:33,474981.0,0.0,0.0
14:01:33,474915.0,0.0,0.0
14:01:33,474984.0,0.0,0.0
14:01:33,474884.0,0.0,0.0
14:01:33,474913.0,0.0,0.0
14:01:33,474964.0,0.0,0.0
14:01:33,474845.0,0.0,0.0
14:01:33,474960.0,0.0,0.0
14:01:33,474934.0,0.0,0.0
14:01:33,474960.0,0.0,0.0
14:01:33,474997.0,0.0,0.0
14:01:33,474899.0,0.0,0.0
14:01:33,475023.0,0.0,0.0
14:01:33,474970.0,0.0,0.0
14:01:33,475017.0,0.0,0.0
14:01:33,475099.0,0.0,0.0
14:01:33,475023.0,0.0,0.0
14:01:33,475138.0,0.0,0.0
14:01:33,475097.0,0.0,0.0
14:01:33,475118.0,0.0,0.0
14:01:33,475171.0,0.0,0.0
14:01:33,475129.0,0.0,0.0
14:01:33,475282.0,0.0,0.0
14:01:33,475256.0,0.0,0.0
14:01:33,475295.0,0.0,0.0
14:01:33,475358.0,0.0,0.0
14:01:33,475263.0,0.0,0.0
14:01:33,475511.0,0.0,0.0
14:01:33,475526.0,0.0,0.0
14:01:33,475703.0,0.0,0.0
14:01:33,475762.0,0.0,0.0
14:01:33,475483.0,0.0,0.0
14:01:33,475604.0,0.0,0.0
14:01:33,475659.0,0.0,0.0
14:01:33,475753.0,0.0,0.0
14:01:33,475872.0,0.0,0.0
14:01:33,475832.0,0.0,0.0
14:01:33,475980.0,0.0,0.0
14:01:33,475943.0,0.0,0.0
14:01:33,475998.0,0.0,0.0
14:01:33,476117.0,0.0,0.0
14:01:33,476078.0,0.0,0.0
14:01:33,476193.0,0.0,0.0
14:01:33,476132.0,0.0,0.0
14:01:33,476199.0,0.0,0.0
14:01:33,476279.0,0.0,0.0
14:01:33,476208.0,0.0,0.0
14:01:33,476329.0,0.0,0.0
14:01:33,476301.0,0.0,0.0
14:01:33,476306.0,0.0,0.0
14:01:33,476339.0,0.0,0.0
14:01:33,476250.0,0.0,0.0
14:01:33,476412.0,0.0,0.0
14:01:33,476331.0,0.0,0.0
14:01:33,476357.0,0.0,0.0
14:01:33,476414.0,0.0,0.0
14:01:33,476294.0,0.0,0.0
14:01:33,476407.0,0.0,0.0
14:01:33,476321.0,0.0,0.0
14:01:33,476294.0,0.0,0.0
14:01:33,476333.0,0.0,0.0
14:01:33,476154.0,0.0,0.0
14:01:33,476173.0,0.0,0.0
14:01:33,476009.0,0.0,0.0
14:01:33,475991.0,0.0,0.0
14:01:33,476049.0,0.0,0.0
14:01:33,475931.0,0.0,0.0
14:01:33,475981.0,0.0,0.0
14:01:33,475887.0,0.0,0.0
14:01:33,475858.0,0.0,0.0
14:01:33,475864.0,0.0,0.0
14:01:33,475739.0,0.0,0.0
14:01:33,475704.0,0.0,0.0
14:01:33,475500.0,0.0,0.0
14:01:33,475488.0,0.0,0.0
14:01:33,475546.0,0.0,0.0
14:01:33,475446.0,0.0,0.0
14:01:33,475468.0,0.0,0.0
14:01:33,475351.0,0.0,0.0
14:01:33,475258.0,0.0,0.0
14:01:33,475200.0,0.0,0.0
14:01:33,475011.0,0.0,0.0
14:01:33,475001.0,0.0,0.0
14:01:33,474846.0,0.0,0.0
14:01:33,474821.0,0.0,0.0
14:01:33,474819.0,0.0,0.0
14:01:33,474668.0,0.0,0.0
14:01:33,474728.0,0.0,0.0
14:01:33,474610.0,0.0,0.0
14:01:33,474573.0,0.0,0.0
14:01:33,474621.0,0.0,0.0
14:01:33,474518.0,0.0,0.0
14:01:33,474600.0,0.0,0.0
14:01:33,474478.0,0.0,0.0
14:01:33,474429.0,0.0,0.0
14:01:33,474417.0,0.0,0.0
14:01:33,474291.0,0.0,0.0
14:01:33,474390.0,0.0,0.0
14:01:33,474290.0,0.0,0.0
14:01:33,474203.0,0.0,0.0
14:01:33,474337.0,0.0,0.0
14:01:33,474378.0,0.0,0.0
14:01:33,474571.0,0.0,0.0
14:01:33,474537.0,0.0,0.0
14:01:33,474456.0,0.0,0.0
14:01:33,474428.0,0.0,0.0
14:01:33,474337.0,0.0,0.0
14:01:33,474474.0,0.0,0.0
14:01:33,474473.0,0.0,0.0
14:01:33,474493.0,0.0,0.0
14:01:33,474566.0,0.0,0.0
14:01:33,474486.0,0.0,0.0
14:01:33,474599.0,0.0,0.0
14:01:33,474554.0,0.0,0.0
14:01:33,474509.0,0.0,0.0
14:01:33,474573.0,0.0,0.0
14:01:33,474443.0,0.0,0.0
14:01:33,474476.0,0.0,0.0
14:01:33,474378.0,0.0,0.0
14:01:33,474471.0,0.0,0.0
14:01:33,474495.0,0.0,0.0
14:01:34,474403.0,0.0,0.0
14:01:34,474418.0,0.0,0.0
14:01:34,474372.0,0.0,0.0
14:01:34,474344.0,0.0,0.0
14:01:34,474342.0,0.0,0.0
14:01:34,474104.0,0.0,0.0
14:01:34,474161.0,0.0,0.0
14:01:34,474054.0,0.0,0.0
14:01:34,474006.0,0.0,0.0
14:01:34,474027.0,0.0,0.0
14:01:34,473832.0,0.0,0.0
14:01:34,473873.0,0.0,0.0
14:01:34,473734.0,0.0,0.0
14:01:34,473639.0,0.0,0.0
14:01:34,473641.0,0.0,0.0
14:01:34,473498.0,0.0,0.0
14:01:34,473464.0,0.0,0.0
14:01:34,473299.0,0.0,0.0
14:01:34,473158.0,0.0,0.0
14:01:34,473178.0,0.0,0.0
14:01:34,472969.0,0.0,0.0
14:01:34,472928.0,0.0,0.0
14:01:34,472783.0,0.0,0.0
14:01:34,472630.0,0.0,0.0
14:01:34,472534.0,0.0,0.0
14:01:34,472259.0,0.0,0.0
14:01:34,472186.0,0.0,0.0
14:01:34,472048.0,0.0,0.0
14:01:34,471885.0,0.0,0.0
14:01:34,471822.0,0.0,0.0
14:01:34,471629.0,0.0,0.0
14:01:34,471607.0,0.0,0.0
14:01:34,471487.0,0.0,0.0
14:01:34,471371.0,0.0,0.0
14:01:34,471381.0,0.0,0.0
14:01:34,471251.0,0.0,0.0
14:01:34,471299.0,0.0,0.0
14:01:34,471257.0,0.0,0.0
14:01:34,471214.0,0.0,0.0
14:01:34,471278.0,0.0,0.0
14:01:34,471168.0,0.0,0.0
14:01:34,471254.0,0.0,0.0
14:01:34,471116.0,0.0,0.0
14:01:34,471042.0,0.0,0.0
14:01:34,471187.0,0.0,0.0
14:01:34,471153.0,0.0,0.0
14:01:34,471278.0,0.0,0.0
14:01:34,471198.0,0.0,0.0
14:01:34,471157.0,0.0,0.0
14:01:34,471245.0,0.0,0.0
14:01:34,471143.0,0.0,0.0
14:01:34,471230.0,0.0,0.0
14:01:34,471164.0,0.0,0.0
14:01:34,471126.0,0.0,0.0
14:01:34,471199.0,0.0,0.0
14:01:34,471193.0,0.0,0.0
14:01:34,471336.0,0.0,0.0
14:01:34,471347.0,0.0,0.0
14:01:34,471254.0,0.0,0.0
14:01:34,471175.0,0.0,0.0
14:01:34,471006.0,0.0,0.0
14:01:34,471276.0,0.0,0.0
14:01:34,471279.0,0.0,0.0
14:01:34,471294.0,0.0,0.0
14:01:34,471192.0,0.0,0.0
14:01:34,471104.0,0.0,0.0
14:01:34,471283.0,0.0,0.0
14:01:34,471146.0,0.0,0.0
14:01:34,471063.0,0.0,0.0
14:01:34,471096.0,0.0,0.0
14:01:34,470993.0,0.0,0.0
14:01:34,471096.0,0.0,0.0
14:01:34,471056.0,0.0,0.0
14:01:34,471063.0,0.0,0.0
14:01:34,471146.0,0.0,0.0
14:01:34,471054.0,0.0,0.0
14:01:34,471044.0,0.0,0.0
14:01:34,471049.0,0.0,0.0
14:01:34,471133.0,0.0,0.0
14:01:34,471296.0,0.0,0.0
14:01:34,471236.0,0.0,0.0
14:01:34,471446.0,0.0,0.0
14:01:34,471503.0,0.0,0.0
14:01:34,471559.0,0.0,0.0
14:01:34,471794.0,0.0,0.0
14:01:34,471816.0,0.0,0.0
14:01:34,472004.0,0.0,0.0
14:01:34,472061.0,0.0,0.0
14:01:34,472121.0,0.0,0.0
14:01:34,472349.0,0.0,0.0
14:01:34,472370.0,0.0,0.0
14:01:34,472608.0,0.0,0.0
14:01:34,472788.0,0.0,0.0
14:01:34,472929.0,0.0,0.0
14:01:34,473181.0,0.0,0.0
14:01:34,473158.0,0.0,0.0
14:01:34,473359.0,0.0,0.0
14:01:34,473471.0,0.0,0.0
14:01:34,473568.0,0.0,0.0
14:01:34,473839.0,0.0,0.0
14:01:34,473879.0,0.0,0.0
14:01:34,474078.0,0.0,0.0
14:01:34,474198.0,0.0,0.0
14:01:34,474300.0,0.0,0.0
14:01:34,474586.0,0.0,0.0
14:01:34,474656.0,0.0,0.0
14:01:34,474876.0,0.0,0.0
14:01:34,474976.0,0.0,0.0
14:01:34,475121.0,0.0,0.0
14:01:34,475399.0,0.0,0.0
14:01:34,475439.0,0.0,0.0
14:01:34,475679.0,0.0,0.0
14:01:34,475807.0,0.0,0.0
14:01:34,475885.0,0.0,0.0
14:01:34,476173.0,0.0,0.0
14:01:34,476269.0,0.0,0.0
14:01:34,476529.0,0.0,0.0
14:01:34,476742.0,0.0,0.0
14:01:34,476927.0,0.0,0.0
14:01:34,477128.0,0.0,0.0
14:01:34,477023.0,0.0,0.0
14:01:34,477434.0,0.0,0.0
14:01:34,477697.0,0.0,0.0
14:01:34,477896.0,0.0,0.0
14:01:35,478074.0,0.0,0.0
14:01:35,478086.0,0.0,0.0
14:01:35,478335.0,0.0,0.0
14:01:35,478479.0,0.0,0.0
14:01:35,478537.0,0.0,0.0
14:01:35,478772.0,0.0,0.0
14:01:35,478854.0,0.0,0.0
14:01:35,479126.0,0.0,0.0
14:01:35,479375.0,0.0,0.0
14:01:35,479501.0,0.0,0.0
14:01:35,479697.0,0.0,0.0
14:01:35,479599.0,0.0,0.0
14:01:35,479741.0,0.0,0.0
14:01:35,479888.0,0.0,0.0
14:01:35,479954.0,0.0,0.0
14:01:35,480145.0,0.0,0.0
14:01:35,480126.0,0.0,0.0
14:01:35,480263.0,0.0,0.0
14:01:35,480326.0,0.0,0.0
14:01:35,480368.0,0.0,0.0
14:01:35,480573.0,0.0,0.0
14:01:35,480545.0,0.0,0.0
14:01:35,480681.0,0.0,0.0
14:01:35,480763.0,0.0,0.0
14:01:35,480751.0,0.0,0.0
14:01:35,480898.0,0.0,0.0
14:01:35,480836.0,0.0,0.0
14:01:35,480962.0,0.0,0.0
14:01:35,480987.0,0.0,0.0
14:01:35,480943.0,0.0,0.0
14:01:35,481038.0,0.0,0.0
14:01:35,481052.0,0.0,0.0
14:01:35,481157.0,0.0,0.0
14:01:35,481186.0,0.0,0.0
14:01:35,481244.0,0.0,0.0
14:01:35,481386.0,0.0,0.0
14:01:35,481308.0,0.0,0.0
14:01:35,481385.0,0.0,0.0
14:01:35,481439.0,0.0,0.0
14:01:35,481463.0,0.0,0.0
14:01:35,481601.0,0.0,0.0
14:01:35,481541.0,0.0,0.0
14:01:35,481649.0,0.0,0.0
14:01:35,481665.0,0.0,0.0
14:01:35,481675.0,0.0,0.0
14:01:35,481804.0,0.0,0.0
14:01:35,481741.0,0.0,0.0
14:01:35,481796.0,0.0,0.0
14:01:35,481746.0,0.0,0.0
14:01:35,481762.0,0.0,0.0
14:01:35,481958.0,0.0,0.0
14:01:35,481908.0,0.0,0.0
14:01:35,481946.0,0.0,0.0
14:01:35,481974.0,0.0,0.0
14:01:35,481953.0,0.0,0.0
14:01:35,482059.0,0.0,0.0
14:01:35,481973.0,0.0,0.0
14:01:35,482171.0,0.0,0.0
14:01:35,482302.0,0.0,0.0
14:01:35,482170.0,0.0,0.0
14:01:35,482235.0,0.0,0.0
14:01:35,482163.0,0.0,0.0
14:01:35,482203.0,0.0,0.0
14:01:35,482208.0,0.0,0.0
14:01:35,482138.0,0.0,0.0
14:01:35,482252.0,0.0,0.0
14:01:35,482173.0,0.0,0.0
14:01:35,482206.0,0.0,0.0
14:01:35,482218.0,0.0,0.0
14:01:35,482136.0,0.0,0.0
14:01:35,482244.0,0.0,0.0
14:01:35,482158.0,0.0,0.0
14:01:35,482234.0,0.0,0.0
14:01:35,482236.0,0.0,0.0
14:01:35,482183.0,0.0,0.0
14:01:35,482238.0,0.0,0.0
14:01:35,482128.0,0.0,0.0
14:01:35,482204.0,0.0,0.0
14:01:35,482156.0,0.0,0.0
14:01:35,482083.0,0.0,0.0
14:01:35,482088.0,0.0,0.0
14:01:35,481955.0,0.0,0.0
14:01:35,482064.0,0.0,0.0
14:01:35,482131.0,0.0,0.0
14:01:35,482069.0,0.0,0.0
14:01:35,482034.0,0.0,0.0
14:01:35,481711.0,0.0,0.0
14:01:35,481657.0,0.0,0.0
14:01:35,481540.0,0.0,0.0
14:01:35,481433.0,0.0,0.0
14:01:35,481516.0,0.0,0.0
14:01:35,481351.0,0.0,0.0
14:01:35,481332.0,0.0,0.0
14:01:35,481233.0,0.0,0.0
14:01:35,481090.0,0.0,0.0
14:01:35,481143.0,0.0,0.0
14:01:35,480977.0,0.0,0.0
14:01:35,480936.0,0.0,0.0
14:01:35,480809.0,0.0,0.0
14:01:35,480659.0,0.0,0.0
14:01:35,480694.0,0.0,0.0
14:01:35,480472.0,0.0,0.0
14:01:35,480426.0,0.0,0.0
14:01:35,480372.0,0.0,0.0
14:01:35,480201.0,0.0,0.0
14:01:35,480189.0,0.0,0.0
14:01:35,479945.0,0.0,0.0
14:01:35,479879.0,0.0,0.0
14:01:35,479827.0,0.0,0.0
14:01:35,479663.0,0.0,0.0
14:01:35,479667.0,0.0,0.0
14:01:35,479494.0,0.0,0.0
14:01:35,479493.0,0.0,0.0
14:01:35,479418.0,0.0,0.0
14:01:35,479277.0,0.0,0.0
14:01:35,479268.0,0.0,0.0
14:01:35,479096.0,0.0,0.0
14:01:35,479053.0,0.0,0.0
14:01:35,478943.0,0.0,0.0
14:01:35,478783.0,0.0,0.0
14:01:35,478759.0,0.0,0.0
14:01:35,478565.0,0.0,0.0
14:01:35,478529.0,0.0,0.0
14:01:35,478407.0,0.0,0.0
14:01:35,478249.0,0.0,0.0
14:01:36,478207.0,0.0,0.0
14:01:36,477989.0,0.0,0.0
14:01:36,477971.0,0.0,0.0
14:01:36,477898.0,0.0,0.0
14:01:36,477802.0,0.0,0.0
14:01:36,477793.0,0.0,0.0
14:01:36,477494.0,0.0,0.0
14:01:36,477482.0,0.0,0.0
14:01:36,477381.0,0.0,0.0
14:01:36,477200.0,0.0,0.0
14:01:36,477210.0,0.0,0.0
14:01:36,477000.0,0.0,0.0
14:01:36,476958.0,0.0,0.0
14:01:36,476819.0,0.0,0.0
14:01:36,476661.0,0.0,0.0
14:01:36,476704.0,0.0,0.0
14:01:36,476503.0,0.0,0.0
14:01:36,476462.0,0.0,0.0
14:01:36,476376.0,0.0,0.0
14:01:36,476286.0,0.0,0.0
14:01:36,476291.0,0.0,0.0
14:01:36,476093.0,0.0,0.0
14:01:36,476084.0,0.0,0.0
14:01:36,476031.0,0.0,0.0
14:01:36,475881.0,0.0,0.0
14:01:36,475865.0,0.0,0.0
14:01:36,475652.0,0.0,0.0
14:01:36,475604.0,0.0,0.0
14:01:36,475506.0,0.0,0.0
14:01:36,475498.0,0.0,0.0
14:01:36,475632.0,0.0,0.0
14:01:36,475514.0,0.0,0.0
14:01:36,475510.0,0.0,0.0
14:01:36,475328.0,0.0,0.0
14:01:36,475141.0,0.0,0.0
14:01:36,475239.0,0.0,0.0
14:01:36,475148.0,0.0,0.0
14:01:36,475233.0,0.0,0.0
14:01:36,475273.0,0.0,0.0
14:01:36,475204.0,0.0,0.0
14:01:36,475351.0,0.0,0.0
14:01:36,475325.0,0.0,0.0
14:01:36,475396.0,0.0,0.0
14:01:36,475409.0,0.0,0.0
14:01:36,475328.0,0.0,0.0
14:01:36,475398.0,0.0,0.0
14:01:36,475304.0,0.0,0.0
14:01:36,475341.0,0.0,0.0
14:01:36,475368.0,0.0,0.0
14:01:36,475241.0,0.0,0.0
14:01:36,475353.0,0.0,0.0
14:01:36,475252.0,0.0,0.0
14:01:36,475268.0,0.0,0.0
14:01:36,475299.0,0.0,0.0
14:01:36,475246.0,0.0,0.0
14:01:36,475367.0,0.0,0.0
14:01:36,475294.0,0.0,0.0
14:01:36,475372.0,0.0,0.0
14:01:36,475374.0,0.0,0.0
14:01:36,475324.0,0.0,0.0
14:01:36,475585.0,0.0,0.0
14:01:36,475566.0,0.0,0.0
14:01:36,475548.0,0.0,0.0
14:01:36,475528.0,0.0,0.0
14:01:36,475421.0,0.0,0.0
14:01:36,475505.0,0.0,0.0
14:01:36,475469.0,0.0,0.0
14:01:36,475511.0,0.0,0.0
14:01:36,475565.0,0.0,0.0
14:01:36,475519.0,0.0,0.0
14:01:36,475640.0,0.0,0.0
14:01:36,475534.0,0.0,0.0
14:01:36,475590.0,0.0,0.0
14:01:36,475635.0,0.0,0.0
14:01:36,475577.0,0.0,0.0
14:01:36,475683.0,0.0,0.0
14:01:36,475606.0,0.0,0.0
14:01:36,475589.0,0.0,0.0
14:01:36,475605.0,0.0,0.0
14:01:36,475514.0,0.0,0.0
14:01:36,475596.0,0.0,0.0
14:01:36,475498.0,0.0,0.0
14:01:36,475486.0,0.0,0.0
14:01:36,475461.0,0.0,0.0
14:01:36,475339.0,0.0,0.0
14:01:36,475443.0,0.0,0.0
14:01:36,475353.0,0.0,0.0
14:01:36,475416.0,0.0,0.0
14:01:36,475454.0,0.0,0.0
14:01:36,475363.0,0.0,0.0
14:01:36,475488.0,0.0,0.0
14:01:36,475404.0,0.0,0.0
14:01:36,475446.0,0.0,0.0
14:01:36,475501.0,0.0,0.0
14:01:36,475411.0,0.0,0.0
14:01:36,475443.0,0.0,0.0
14:01:36,475304.0,0.0,0.0
14:01:36,475294.0,0.0,0.0
14:01:36,475280.0,0.0,0.0
14:01:36,475275.0,0.0,0.0
14:01:36,475497.0,0.0,0.0
14:01:36,475471.0,0.0,0.0
14:01:36,475448.0,0.0,0.0
14:01:36,475368.0,0.0,0.0
14:01:36,475243.0,0.0,0.0
14:01:36,475326.0,0.0,0.0
14:01:36,475269.0,0.0,0.0
14:01:36,475325.0,0.0,0.0
14:01:36,475404.0,0.0,0.0
14:01:36,475320.0,0.0,0.0
14:01:36,475404.0,0.0,0.0
14:01:36,475363.0,0.0,0.0
14:01:36,475393.0,0.0,0.0
14:01:36,475439.0,0.0,0.0
