TimeStramp,ECG,SpO2,Respiration
11:17:00,530480.0,0.0,0.0
11:17:00,529979.0,0.0,0.0
11:17:00,530651.0,0.0,0.0
11:17:00,530179.0,0.0,0.0
11:17:00,530284.0,0.0,0.0
11:17:00,530521.0,0.0,0.0
11:17:00,530094.0,0.0,0.0
11:17:00,530709.0,0.0,0.0
11:17:00,530292.0,0.0,0.0
11:17:00,530445.0,0.0,0.0
11:17:00,530622.0,0.0,0.0
11:17:00,530192.0,0.0,0.0
11:17:00,530761.0,0.0,0.0
11:17:00,530358.0,0.0,0.0
11:17:00,530476.0,0.0,0.0
11:17:00,530703.0,0.0,0.0
11:17:00,530224.0,0.0,0.0
11:17:00,530827.0,0.0,0.0
11:17:00,530339.0,0.0,0.0
11:17:00,530516.0,0.0,0.0
11:17:00,530800.0,0.0,0.0
11:17:00,530419.0,0.0,0.0
11:17:00,530885.0,0.0,0.0
11:17:00,530558.0,0.0,0.0
11:17:00,530670.0,0.0,0.0
11:17:00,530974.0,0.0,0.0
11:17:00,530452.0,0.0,0.0
11:17:00,531069.0,0.0,0.0
11:17:00,530608.0,0.0,0.0
11:17:00,530795.0,0.0,0.0
11:17:00,530996.0,0.0,0.0
11:17:00,530541.0,0.0,0.0
11:17:00,531088.0,0.0,0.0
11:17:00,530746.0,0.0,0.0
11:17:00,530902.0,0.0,0.0
11:17:00,531087.0,0.0,0.0
11:17:00,530698.0,0.0,0.0
11:17:00,531258.0,0.0,0.0
11:17:00,530936.0,0.0,0.0
11:17:00,531034.0,0.0,0.0
11:17:00,531391.0,0.0,0.0
11:17:00,530828.0,0.0,0.0
11:17:00,531241.0,0.0,0.0
11:17:00,530692.0,0.0,0.0
11:17:00,530909.0,0.0,0.0
11:17:00,531195.0,0.0,0.0
11:17:00,530953.0,0.0,0.0
11:17:00,531478.0,0.0,0.0
11:17:00,531104.0,0.0,0.0
11:17:00,531126.0,0.0,0.0
11:17:00,531419.0,0.0,0.0
11:17:00,530895.0,0.0,0.0
11:17:00,531542.0,0.0,0.0
11:17:00,531017.0,0.0,0.0
11:17:00,531213.0,0.0,0.0
11:17:00,531471.0,0.0,0.0
11:17:00,531001.0,0.0,0.0
11:17:00,531533.0,0.0,0.0
11:17:00,531128.0,0.0,0.0
11:17:00,531258.0,0.0,0.0
11:17:00,531512.0,0.0,0.0
11:17:00,531002.0,0.0,0.0
11:17:00,531556.0,0.0,0.0
11:17:00,531165.0,0.0,0.0
11:17:00,531291.0,0.0,0.0
11:17:00,531584.0,0.0,0.0
11:17:00,531044.0,0.0,0.0
11:17:00,531653.0,0.0,0.0
11:17:00,531206.0,0.0,0.0
11:17:00,531389.0,0.0,0.0
11:17:00,531672.0,0.0,0.0
11:17:00,531227.0,0.0,0.0
11:17:00,531685.0,0.0,0.0
11:17:00,531329.0,0.0,0.0
11:17:00,531436.0,0.0,0.0
11:17:00,531719.0,0.0,0.0
11:17:00,531223.0,0.0,0.0
11:17:00,531873.0,0.0,0.0
11:17:00,531387.0,0.0,0.0
11:17:00,531583.0,0.0,0.0
11:17:00,531845.0,0.0,0.0
11:17:00,531458.0,0.0,0.0
11:17:00,531988.0,0.0,0.0
11:17:00,531612.0,0.0,0.0
11:17:00,531760.0,0.0,0.0
11:17:00,532086.0,0.0,0.0
11:17:00,531615.0,0.0,0.0
11:17:00,532187.0,0.0,0.0
11:17:00,531826.0,0.0,0.0
11:17:00,531928.0,0.0,0.0
11:17:00,532190.0,0.0,0.0
11:17:00,531684.0,0.0,0.0
11:17:00,532270.0,0.0,0.0
11:17:00,531830.0,0.0,0.0
11:17:00,531950.0,0.0,0.0
11:17:00,532181.0,0.0,0.0
11:17:00,531729.0,0.0,0.0
11:17:00,532278.0,0.0,0.0
11:17:00,531937.0,0.0,0.0
11:17:00,532023.0,0.0,0.0
11:17:00,532393.0,0.0,0.0
11:17:00,531796.0,0.0,0.0
11:17:00,532462.0,0.0,0.0
11:17:00,532053.0,0.0,0.0
11:17:00,532150.0,0.0,0.0
11:17:00,532341.0,0.0,0.0
11:17:00,531896.0,0.0,0.0
11:17:00,532474.0,0.0,0.0
11:17:00,532081.0,0.0,0.0
11:17:00,532186.0,0.0,0.0
11:17:00,532414.0,0.0,0.0
11:17:00,531980.0,0.0,0.0
11:17:00,532556.0,0.0,0.0
11:17:00,532167.0,0.0,0.0
11:17:00,532283.0,0.0,0.0
11:17:00,532621.0,0.0,0.0
11:17:00,532155.0,0.0,0.0
11:17:00,532637.0,0.0,0.0
11:17:00,532118.0,0.0,0.0
11:17:00,532293.0,0.0,0.0
11:17:00,532634.0,0.0,0.0
11:17:00,532292.0,0.0,0.0
11:17:00,532844.0,0.0,0.0
11:17:00,532502.0,0.0,0.0
11:17:01,532533.0,0.0,0.0
11:17:01,532817.0,0.0,0.0
11:17:01,532221.0,0.0,0.0
11:17:01,532796.0,0.0,0.0
11:17:01,532408.0,0.0,0.0
11:17:01,532553.0,0.0,0.0
11:17:01,532757.0,0.0,0.0
11:17:01,532389.0,0.0,0.0
11:17:01,532893.0,0.0,0.0
11:17:01,532513.0,0.0,0.0
11:17:01,532629.0,0.0,0.0
11:17:01,532913.0,0.0,0.0
11:17:01,532428.0,0.0,0.0
11:17:01,532858.0,0.0,0.0
11:17:01,532479.0,0.0,0.0
11:17:01,532560.0,0.0,0.0
11:17:01,532824.0,0.0,0.0
11:17:01,532401.0,0.0,0.0
11:17:01,532807.0,0.0,0.0
11:17:01,532426.0,0.0,0.0
11:17:01,532616.0,0.0,0.0
11:17:01,532733.0,0.0,0.0
11:17:01,532436.0,0.0,0.0
11:17:01,532673.0,0.0,0.0
11:17:01,532450.0,0.0,0.0
11:17:01,532521.0,0.0,0.0
11:17:01,532640.0,0.0,0.0
11:17:01,532264.0,0.0,0.0
11:17:01,532570.0,0.0,0.0
11:17:01,532219.0,0.0,0.0
11:17:01,532366.0,0.0,0.0
11:17:01,532343.0,0.0,0.0
11:17:01,532134.0,0.0,0.0
11:17:01,532449.0,0.0,0.0
11:17:01,532214.0,0.0,0.0
11:17:01,532326.0,0.0,0.0
11:17:01,532411.0,0.0,0.0
11:17:01,532206.0,0.0,0.0
11:17:01,532516.0,0.0,0.0
11:17:01,532276.0,0.0,0.0
11:17:01,532367.0,0.0,0.0
11:17:01,532404.0,0.0,0.0
11:17:01,532157.0,0.0,0.0
11:17:01,532488.0,0.0,0.0
11:17:01,532148.0,0.0,0.0
11:17:01,532274.0,0.0,0.0
11:17:01,532211.0,0.0,0.0
11:17:01,532057.0,0.0,0.0
11:17:01,532294.0,0.0,0.0
11:17:01,532116.0,0.0,0.0
11:17:01,532186.0,0.0,0.0
11:17:01,532308.0,0.0,0.0
11:17:01,531966.0,0.0,0.0
11:17:01,532374.0,0.0,0.0
11:17:01,532114.0,0.0,0.0
11:17:01,532236.0,0.0,0.0
11:17:01,532281.0,0.0,0.0
11:17:01,532092.0,0.0,0.0
11:17:01,532313.0,0.0,0.0
11:17:01,532006.0,0.0,0.0
11:17:01,532098.0,0.0,0.0
11:17:01,532081.0,0.0,0.0
11:17:01,531836.0,0.0,0.0
11:17:01,532214.0,0.0,0.0
11:17:01,531817.0,0.0,0.0
11:17:01,531766.0,0.0,0.0
11:17:01,531803.0,0.0,0.0
11:17:01,531511.0,0.0,0.0
11:17:01,531929.0,0.0,0.0
11:17:01,531611.0,0.0,0.0
11:17:01,531870.0,0.0,0.0
11:17:01,531930.0,0.0,0.0
11:17:01,531695.0,0.0,0.0
11:17:01,531976.0,0.0,0.0
11:17:01,531709.0,0.0,0.0
11:17:01,531759.0,0.0,0.0
11:17:01,531847.0,0.0,0.0
11:17:01,531457.0,0.0,0.0
11:17:01,531855.0,0.0,0.0
11:17:01,531480.0,0.0,0.0
11:17:01,531679.0,0.0,0.0
11:17:01,531824.0,0.0,0.0
11:17:01,531578.0,0.0,0.0
11:17:01,531944.0,0.0,0.0
11:17:01,531661.0,0.0,0.0
11:17:01,531742.0,0.0,0.0
11:17:01,531891.0,0.0,0.0
11:17:01,531526.0,0.0,0.0
11:17:01,531944.0,0.0,0.0
11:17:01,531574.0,0.0,0.0
11:17:01,531593.0,0.0,0.0
11:17:01,531763.0,0.0,0.0
11:17:01,531351.0,0.0,0.0
11:17:01,531855.0,0.0,0.0
11:17:01,531419.0,0.0,0.0
11:17:01,531612.0,0.0,0.0
11:17:01,531770.0,0.0,0.0
11:17:01,531434.0,0.0,0.0
11:17:01,531863.0,0.0,0.0
11:17:01,531579.0,0.0,0.0
11:17:01,531582.0,0.0,0.0
11:17:01,531817.0,0.0,0.0
11:17:01,531352.0,0.0,0.0
11:17:01,531911.0,0.0,0.0
11:17:01,531453.0,0.0,0.0
11:17:01,531601.0,0.0,0.0
11:17:01,531793.0,0.0,0.0
11:17:01,531442.0,0.0,0.0
11:17:01,531948.0,0.0,0.0
11:17:01,531635.0,0.0,0.0
11:17:01,531726.0,0.0,0.0
11:17:01,532015.0,0.0,0.0
11:17:01,531624.0,0.0,0.0
11:17:01,532117.0,0.0,0.0
11:17:01,531766.0,0.0,0.0
11:17:01,531783.0,0.0,0.0
11:17:01,532074.0,0.0,0.0
11:17:01,531641.0,0.0,0.0
11:17:01,532154.0,0.0,0.0
11:17:01,531768.0,0.0,0.0
11:17:01,531855.0,0.0,0.0
11:17:01,532086.0,0.0,0.0
11:17:01,531684.0,0.0,0.0
11:17:01,532015.0,0.0,0.0
11:17:01,531728.0,0.0,0.0
11:17:02,531803.0,0.0,0.0
11:17:02,532062.0,0.0,0.0
11:17:02,531644.0,0.0,0.0
11:17:02,532126.0,0.0,0.0
11:17:02,531763.0,0.0,0.0
11:17:02,531889.0,0.0,0.0
11:17:02,532091.0,0.0,0.0
11:17:02,531750.0,0.0,0.0
11:17:02,532236.0,0.0,0.0
11:17:02,531899.0,0.0,0.0
11:17:02,531783.0,0.0,0.0
11:17:02,532004.0,0.0,0.0
11:17:02,531619.0,0.0,0.0
11:17:02,532164.0,0.0,0.0
11:17:02,531927.0,0.0,0.0
11:17:02,532031.0,0.0,0.0
11:17:02,532234.0,0.0,0.0
11:17:02,531749.0,0.0,0.0
11:17:02,532210.0,0.0,0.0
11:17:02,531824.0,0.0,0.0
11:17:02,531904.0,0.0,0.0
11:17:02,532064.0,0.0,0.0
11:17:02,531750.0,0.0,0.0
11:17:02,532178.0,0.0,0.0
11:17:02,531971.0,0.0,0.0
11:17:02,532053.0,0.0,0.0
11:17:02,532274.0,0.0,0.0
11:17:02,531793.0,0.0,0.0
11:17:02,532322.0,0.0,0.0
11:17:02,531909.0,0.0,0.0
11:17:02,531947.0,0.0,0.0
11:17:02,532081.0,0.0,0.0
11:17:02,531713.0,0.0,0.0
11:17:02,532149.0,0.0,0.0
11:17:02,531851.0,0.0,0.0
11:17:02,531895.0,0.0,0.0
11:17:02,532136.0,0.0,0.0
11:17:02,531683.0,0.0,0.0
11:17:02,532210.0,0.0,0.0
11:17:02,531869.0,0.0,0.0
11:17:02,531917.0,0.0,0.0
11:17:02,532179.0,0.0,0.0
11:17:02,531717.0,0.0,0.0
11:17:02,532227.0,0.0,0.0
11:17:02,531837.0,0.0,0.0
11:17:02,531913.0,0.0,0.0
11:17:02,532143.0,0.0,0.0
11:17:02,531748.0,0.0,0.0
11:17:02,532135.0,0.0,0.0
11:17:02,531813.0,0.0,0.0
11:17:02,531866.0,0.0,0.0
11:17:02,532147.0,0.0,0.0
11:17:02,531685.0,0.0,0.0
11:17:02,532249.0,0.0,0.0
11:17:02,531905.0,0.0,0.0
11:17:02,532085.0,0.0,0.0
11:17:02,532314.0,0.0,0.0
11:17:02,531910.0,0.0,0.0
11:17:02,532418.0,0.0,0.0
11:17:02,532034.0,0.0,0.0
11:17:02,531989.0,0.0,0.0
11:17:02,532193.0,0.0,0.0
11:17:02,531687.0,0.0,0.0
11:17:02,532155.0,0.0,0.0
11:17:02,531811.0,0.0,0.0
11:17:02,531869.0,0.0,0.0
11:17:02,532032.0,0.0,0.0
11:17:02,531647.0,0.0,0.0
11:17:02,532164.0,0.0,0.0
11:17:02,531918.0,0.0,0.0
11:17:02,532069.0,0.0,0.0
11:17:02,532271.0,0.0,0.0
11:17:02,531911.0,0.0,0.0
11:17:02,532231.0,0.0,0.0
11:17:02,531953.0,0.0,0.0
11:17:02,532051.0,0.0,0.0
11:17:02,532279.0,0.0,0.0
11:17:02,531914.0,0.0,0.0
11:17:02,532191.0,0.0,0.0
11:17:02,531762.0,0.0,0.0
11:17:02,531943.0,0.0,0.0
11:17:02,531993.0,0.0,0.0
11:17:02,531778.0,0.0,0.0
11:17:02,532123.0,0.0,0.0
11:17:02,531897.0,0.0,0.0
11:17:02,531938.0,0.0,0.0
11:17:02,532078.0,0.0,0.0
11:17:02,531770.0,0.0,0.0
11:17:02,532080.0,0.0,0.0
11:17:02,531805.0,0.0,0.0
11:17:02,531923.0,0.0,0.0
11:17:02,532098.0,0.0,0.0
11:17:02,531789.0,0.0,0.0
11:17:02,532146.0,0.0,0.0
11:17:02,531847.0,0.0,0.0
11:17:02,532026.0,0.0,0.0
11:17:02,532096.0,0.0,0.0
11:17:02,531794.0,0.0,0.0
11:17:02,532101.0,0.0,0.0
11:17:02,531863.0,0.0,0.0
11:17:02,531944.0,0.0,0.0
11:17:02,532123.0,0.0,0.0
11:17:02,531756.0,0.0,0.0
11:17:02,532142.0,0.0,0.0
11:17:02,531811.0,0.0,0.0
11:17:02,531898.0,0.0,0.0
11:17:02,532026.0,0.0,0.0
11:17:02,531706.0,0.0,0.0
11:17:02,532045.0,0.0,0.0
11:17:02,531756.0,0.0,0.0
11:17:02,531814.0,0.0,0.0
11:17:02,532070.0,0.0,0.0
11:17:02,531698.0,0.0,0.0
11:17:02,532084.0,0.0,0.0
11:17:02,531793.0,0.0,0.0
11:17:02,531781.0,0.0,0.0
11:17:02,531878.0,0.0,0.0
11:17:02,531510.0,0.0,0.0
11:17:02,531897.0,0.0,0.0
11:17:02,531584.0,0.0,0.0
11:17:02,531711.0,0.0,0.0
11:17:02,531880.0,0.0,0.0
11:17:02,531576.0,0.0,0.0
11:17:02,531980.0,0.0,0.0
11:17:02,531717.0,0.0,0.0
11:17:03,531768.0,0.0,0.0
11:17:03,532095.0,0.0,0.0
11:17:03,531693.0,0.0,0.0
11:17:03,532187.0,0.0,0.0
11:17:03,531883.0,0.0,0.0
11:17:03,531998.0,0.0,0.0
11:17:03,532130.0,0.0,0.0
11:17:03,531768.0,0.0,0.0
11:17:03,532203.0,0.0,0.0
11:17:03,531939.0,0.0,0.0
11:17:03,532032.0,0.0,0.0
11:17:03,532212.0,0.0,0.0
11:17:03,531870.0,0.0,0.0
11:17:03,532251.0,0.0,0.0
11:17:03,531961.0,0.0,0.0
11:17:03,531736.0,0.0,0.0
11:17:03,531797.0,0.0,0.0
11:17:03,531433.0,0.0,0.0
11:17:03,531876.0,0.0,0.0
11:17:03,531597.0,0.0,0.0
11:17:03,531789.0,0.0,0.0
11:17:03,532006.0,0.0,0.0
11:17:03,531713.0,0.0,0.0
11:17:03,532002.0,0.0,0.0
11:17:03,531668.0,0.0,0.0
11:17:03,531579.0,0.0,0.0
11:17:03,531838.0,0.0,0.0
11:17:03,531644.0,0.0,0.0
11:17:03,532177.0,0.0,0.0
11:17:03,531882.0,0.0,0.0
11:17:03,531911.0,0.0,0.0
11:17:03,531957.0,0.0,0.0
11:17:03,531683.0,0.0,0.0
11:17:03,532001.0,0.0,0.0
11:17:03,531824.0,0.0,0.0
11:17:03,531880.0,0.0,0.0
11:17:03,532019.0,0.0,0.0
11:17:03,531864.0,0.0,0.0
11:17:03,532206.0,0.0,0.0
11:17:03,531938.0,0.0,0.0
11:17:03,531946.0,0.0,0.0
11:17:03,532063.0,0.0,0.0
11:17:03,531828.0,0.0,0.0
11:17:03,532206.0,0.0,0.0
11:17:03,531930.0,0.0,0.0
11:17:03,532101.0,0.0,0.0
11:17:03,532189.0,0.0,0.0
11:17:03,531938.0,0.0,0.0
11:17:03,532181.0,0.0,0.0
11:17:03,531977.0,0.0,0.0
11:17:03,532064.0,0.0,0.0
11:17:03,532186.0,0.0,0.0
11:17:03,531872.0,0.0,0.0
11:17:03,532253.0,0.0,0.0
11:17:03,531974.0,0.0,0.0
11:17:03,532081.0,0.0,0.0
11:17:03,532199.0,0.0,0.0
11:17:03,531890.0,0.0,0.0
11:17:03,532212.0,0.0,0.0
11:17:03,531946.0,0.0,0.0
11:17:03,531959.0,0.0,0.0
11:17:03,532059.0,0.0,0.0
11:17:03,531695.0,0.0,0.0
11:17:03,532066.0,0.0,0.0
11:17:03,531803.0,0.0,0.0
11:17:03,531815.0,0.0,0.0
11:17:03,532061.0,0.0,0.0
11:17:03,531603.0,0.0,0.0
11:17:03,532074.0,0.0,0.0
11:17:03,531741.0,0.0,0.0
11:17:03,531785.0,0.0,0.0
11:17:03,532040.0,0.0,0.0
11:17:03,531590.0,0.0,0.0
11:17:03,532008.0,0.0,0.0
11:17:03,531750.0,0.0,0.0
11:17:03,531720.0,0.0,0.0
11:17:03,531998.0,0.0,0.0
11:17:03,531482.0,0.0,0.0
11:17:03,531963.0,0.0,0.0
11:17:03,531624.0,0.0,0.0
11:17:03,531676.0,0.0,0.0
11:17:03,531899.0,0.0,0.0
11:17:03,531488.0,0.0,0.0
11:17:03,531904.0,0.0,0.0
11:17:03,531484.0,0.0,0.0
11:17:03,531379.0,0.0,0.0
11:17:03,531738.0,0.0,0.0
11:17:03,531423.0,0.0,0.0
11:17:03,531812.0,0.0,0.0
11:17:03,531521.0,0.0,0.0
11:17:03,531505.0,0.0,0.0
11:17:03,531686.0,0.0,0.0
11:17:03,531361.0,0.0,0.0
11:17:03,531758.0,0.0,0.0
11:17:03,531443.0,0.0,0.0
11:17:03,531533.0,0.0,0.0
11:17:03,531651.0,0.0,0.0
11:17:03,531480.0,0.0,0.0
11:17:03,531774.0,0.0,0.0
11:17:03,531470.0,0.0,0.0
11:17:03,531361.0,0.0,0.0
11:17:03,531451.0,0.0,0.0
11:17:03,531184.0,0.0,0.0
11:17:03,531603.0,0.0,0.0
11:17:03,531445.0,0.0,0.0
11:17:03,531531.0,0.0,0.0
11:17:03,531569.0,0.0,0.0
11:17:03,531300.0,0.0,0.0
11:17:03,531501.0,0.0,0.0
11:17:03,531166.0,0.0,0.0
11:17:03,531242.0,0.0,0.0
11:17:03,531353.0,0.0,0.0
11:17:03,531127.0,0.0,0.0
11:17:03,531388.0,0.0,0.0
11:17:03,531156.0,0.0,0.0
11:17:03,531253.0,0.0,0.0
11:17:03,531319.0,0.0,0.0
11:17:03,531081.0,0.0,0.0
11:17:03,531409.0,0.0,0.0
11:17:03,531129.0,0.0,0.0
11:17:03,531250.0,0.0,0.0
11:17:03,531351.0,0.0,0.0
11:17:03,531205.0,0.0,0.0
11:17:03,531487.0,0.0,0.0
11:17:03,531343.0,0.0,0.0
11:17:04,531387.0,0.0,0.0
11:17:04,531479.0,0.0,0.0
11:17:04,531181.0,0.0,0.0
11:17:04,531421.0,0.0,0.0
11:17:04,531149.0,0.0,0.0
11:17:04,531274.0,0.0,0.0
11:17:04,531333.0,0.0,0.0
11:17:04,531110.0,0.0,0.0
11:17:04,531386.0,0.0,0.0
11:17:04,531168.0,0.0,0.0
11:17:04,531188.0,0.0,0.0
11:17:04,531246.0,0.0,0.0
11:17:04,531034.0,0.0,0.0
11:17:04,531281.0,0.0,0.0
11:17:04,531083.0,0.0,0.0
11:17:04,531105.0,0.0,0.0
11:17:04,531165.0,0.0,0.0
11:17:04,530925.0,0.0,0.0
11:17:04,531215.0,0.0,0.0
11:17:04,530943.0,0.0,0.0
11:17:04,531014.0,0.0,0.0
11:17:04,531064.0,0.0,0.0
11:17:04,530868.0,0.0,0.0
11:17:04,531049.0,0.0,0.0
11:17:04,530820.0,0.0,0.0
11:17:04,530858.0,0.0,0.0
11:17:04,530905.0,0.0,0.0
11:17:04,530628.0,0.0,0.0
11:17:04,530896.0,0.0,0.0
11:17:04,530592.0,0.0,0.0
11:17:04,530651.0,0.0,0.0
11:17:04,530743.0,0.0,0.0
11:17:04,530539.0,0.0,0.0
11:17:04,530783.0,0.0,0.0
11:17:04,530583.0,0.0,0.0
11:17:04,530676.0,0.0,0.0
11:17:04,530714.0,0.0,0.0
11:17:04,530521.0,0.0,0.0
11:17:04,530797.0,0.0,0.0
11:17:04,530576.0,0.0,0.0
11:17:04,530700.0,0.0,0.0
11:17:04,530731.0,0.0,0.0
11:17:04,530453.0,0.0,0.0
11:17:04,530676.0,0.0,0.0
11:17:04,530385.0,0.0,0.0
11:17:04,530462.0,0.0,0.0
11:17:04,530540.0,0.0,0.0
11:17:04,530355.0,0.0,0.0
11:17:04,530501.0,0.0,0.0
11:17:04,530276.0,0.0,0.0
11:17:04,530334.0,0.0,0.0
11:17:04,530364.0,0.0,0.0
11:17:04,530097.0,0.0,0.0
11:17:04,530366.0,0.0,0.0
11:17:04,530119.0,0.0,0.0
11:17:04,530206.0,0.0,0.0
11:17:04,530191.0,0.0,0.0
11:17:04,529959.0,0.0,0.0
11:17:04,530168.0,0.0,0.0
11:17:04,529953.0,0.0,0.0
11:17:04,530046.0,0.0,0.0
11:17:04,530049.0,0.0,0.0
11:17:04,529598.0,0.0,0.0
11:17:04,529771.0,0.0,0.0
11:17:04,529623.0,0.0,0.0
11:17:04,529805.0,0.0,0.0
11:17:04,530023.0,0.0,0.0
11:17:04,529783.0,0.0,0.0
11:17:04,530109.0,0.0,0.0
11:17:04,529844.0,0.0,0.0
11:17:04,529854.0,0.0,0.0
11:17:04,529839.0,0.0,0.0
11:17:04,529641.0,0.0,0.0
11:17:04,529908.0,0.0,0.0
11:17:04,529681.0,0.0,0.0
11:17:04,529754.0,0.0,0.0
11:17:04,529878.0,0.0,0.0
11:17:04,529603.0,0.0,0.0
11:17:04,529953.0,0.0,0.0
11:17:04,529720.0,0.0,0.0
11:17:04,529868.0,0.0,0.0
11:17:04,529921.0,0.0,0.0
11:17:04,529742.0,0.0,0.0
11:17:04,530106.0,0.0,0.0
11:17:04,529943.0,0.0,0.0
11:17:04,530001.0,0.0,0.0
11:17:04,530213.0,0.0,0.0
11:17:04,529941.0,0.0,0.0
11:17:04,530334.0,0.0,0.0
11:17:04,530115.0,0.0,0.0
11:17:04,530208.0,0.0,0.0
11:17:04,530495.0,0.0,0.0
11:17:04,530264.0,0.0,0.0
11:17:04,530796.0,0.0,0.0
11:17:04,530780.0,0.0,0.0
11:17:04,531058.0,0.0,0.0
11:17:04,531290.0,0.0,0.0
11:17:04,531076.0,0.0,0.0
11:17:04,531519.0,0.0,0.0
11:17:04,531444.0,0.0,0.0
11:17:04,531611.0,0.0,0.0
11:17:04,531891.0,0.0,0.0
11:17:04,531614.0,0.0,0.0
11:17:04,532095.0,0.0,0.0
11:17:04,531794.0,0.0,0.0
11:17:04,531899.0,0.0,0.0
11:17:04,532009.0,0.0,0.0
11:17:04,531761.0,0.0,0.0
11:17:04,532086.0,0.0,0.0
11:17:04,531899.0,0.0,0.0
11:17:04,531981.0,0.0,0.0
11:17:04,532171.0,0.0,0.0
11:17:04,531998.0,0.0,0.0
11:17:04,532365.0,0.0,0.0
11:17:04,532166.0,0.0,0.0
11:17:04,532343.0,0.0,0.0
11:17:04,532537.0,0.0,0.0
11:17:04,532339.0,0.0,0.0
11:17:04,532747.0,0.0,0.0
11:17:04,532551.0,0.0,0.0
11:17:04,532624.0,0.0,0.0
11:17:04,532708.0,0.0,0.0
11:17:04,532501.0,0.0,0.0
11:17:04,532817.0,0.0,0.0
11:17:04,532676.0,0.0,0.0
11:17:05,532654.0,0.0,0.0
11:17:05,532776.0,0.0,0.0
11:17:05,532563.0,0.0,0.0
11:17:05,532918.0,0.0,0.0
11:17:05,532745.0,0.0,0.0
11:17:05,532913.0,0.0,0.0
11:17:05,533040.0,0.0,0.0
11:17:05,532920.0,0.0,0.0
11:17:05,533224.0,0.0,0.0
11:17:05,533143.0,0.0,0.0
11:17:05,533236.0,0.0,0.0
11:17:05,533401.0,0.0,0.0
11:17:05,533228.0,0.0,0.0
11:17:05,533469.0,0.0,0.0
11:17:05,533213.0,0.0,0.0
11:17:05,533264.0,0.0,0.0
11:17:05,533391.0,0.0,0.0
11:17:05,533210.0,0.0,0.0
11:17:05,533514.0,0.0,0.0
11:17:05,533274.0,0.0,0.0
11:17:05,533387.0,0.0,0.0
11:17:05,533451.0,0.0,0.0
11:17:05,533368.0,0.0,0.0
11:17:05,533633.0,0.0,0.0
11:17:05,533564.0,0.0,0.0
11:17:05,533556.0,0.0,0.0
11:17:05,533696.0,0.0,0.0
11:17:05,533566.0,0.0,0.0
11:17:05,533888.0,0.0,0.0
11:17:05,533564.0,0.0,0.0
11:17:05,533480.0,0.0,0.0
11:17:05,533336.0,0.0,0.0
11:17:05,533255.0,0.0,0.0
11:17:05,533499.0,0.0,0.0
11:17:05,533420.0,0.0,0.0
11:17:05,533626.0,0.0,0.0
11:17:05,533720.0,0.0,0.0
11:17:05,533487.0,0.0,0.0
11:17:05,533754.0,0.0,0.0
11:17:05,533589.0,0.0,0.0
11:17:05,533559.0,0.0,0.0
11:17:05,533664.0,0.0,0.0
11:17:05,533372.0,0.0,0.0
11:17:05,533725.0,0.0,0.0
11:17:05,533498.0,0.0,0.0
11:17:05,533640.0,0.0,0.0
11:17:05,533696.0,0.0,0.0
11:17:05,533449.0,0.0,0.0
11:17:05,533709.0,0.0,0.0
11:17:05,533549.0,0.0,0.0
11:17:05,533583.0,0.0,0.0
11:17:05,533818.0,0.0,0.0
11:17:05,533468.0,0.0,0.0
11:17:05,533915.0,0.0,0.0
11:17:05,533716.0,0.0,0.0
11:17:05,533770.0,0.0,0.0
11:17:05,533915.0,0.0,0.0
11:17:05,533540.0,0.0,0.0
11:17:05,533843.0,0.0,0.0
11:17:05,533544.0,0.0,0.0
11:17:05,533432.0,0.0,0.0
11:17:05,533601.0,0.0,0.0
11:17:05,533198.0,0.0,0.0
11:17:05,533353.0,0.0,0.0
11:17:05,533057.0,0.0,0.0
11:17:05,533011.0,0.0,0.0
11:17:05,533204.0,0.0,0.0
11:17:05,532892.0,0.0,0.0
11:17:05,533224.0,0.0,0.0
11:17:05,533003.0,0.0,0.0
11:17:05,533084.0,0.0,0.0
11:17:05,533229.0,0.0,0.0
11:17:05,533005.0,0.0,0.0
11:17:05,533386.0,0.0,0.0
11:17:05,533275.0,0.0,0.0
11:17:05,533238.0,0.0,0.0
11:17:05,533461.0,0.0,0.0
11:17:05,533123.0,0.0,0.0
11:17:05,533428.0,0.0,0.0
11:17:05,533209.0,0.0,0.0
11:17:05,533269.0,0.0,0.0
11:17:05,533348.0,0.0,0.0
11:17:05,533042.0,0.0,0.0
11:17:05,533216.0,0.0,0.0
11:17:05,533055.0,0.0,0.0
11:17:05,533069.0,0.0,0.0
11:17:05,533196.0,0.0,0.0
11:17:05,532912.0,0.0,0.0
11:17:05,533163.0,0.0,0.0
11:17:05,532950.0,0.0,0.0
11:17:05,533061.0,0.0,0.0
11:17:05,533189.0,0.0,0.0
11:17:05,532958.0,0.0,0.0
11:17:05,533172.0,0.0,0.0
11:17:05,532859.0,0.0,0.0
11:17:05,532906.0,0.0,0.0
11:17:05,532978.0,0.0,0.0
11:17:05,532719.0,0.0,0.0
11:17:05,532900.0,0.0,0.0
11:17:05,532737.0,0.0,0.0
11:17:05,532772.0,0.0,0.0
11:17:05,532869.0,0.0,0.0
11:17:05,532596.0,0.0,0.0
11:17:05,532845.0,0.0,0.0
11:17:05,532565.0,0.0,0.0
11:17:05,532548.0,0.0,0.0
11:17:05,532546.0,0.0,0.0
11:17:05,532317.0,0.0,0.0
11:17:05,532541.0,0.0,0.0
11:17:05,532341.0,0.0,0.0
11:17:05,532348.0,0.0,0.0
11:17:05,532481.0,0.0,0.0
11:17:05,532197.0,0.0,0.0
11:17:05,532388.0,0.0,0.0
11:17:05,532206.0,0.0,0.0
11:17:05,532114.0,0.0,0.0
11:17:05,532204.0,0.0,0.0
11:17:05,531782.0,0.0,0.0
11:17:05,532012.0,0.0,0.0
11:17:05,531699.0,0.0,0.0
11:17:05,531699.0,0.0,0.0
11:17:05,531661.0,0.0,0.0
11:17:05,531364.0,0.0,0.0
11:17:05,531615.0,0.0,0.0
11:17:05,531344.0,0.0,0.0
11:17:05,531226.0,0.0,0.0
11:17:06,531431.0,0.0,0.0
11:17:06,530907.0,0.0,0.0
11:17:06,531156.0,0.0,0.0
11:17:06,530888.0,0.0,0.0
11:17:06,530933.0,0.0,0.0
11:17:06,531208.0,0.0,0.0
11:17:06,530883.0,0.0,0.0
11:17:06,531131.0,0.0,0.0
11:17:06,530798.0,0.0,0.0
11:17:06,530670.0,0.0,0.0
11:17:06,530831.0,0.0,0.0
11:17:06,530412.0,0.0,0.0
11:17:06,530767.0,0.0,0.0
11:17:06,530481.0,0.0,0.0
11:17:06,530434.0,0.0,0.0
11:17:06,530818.0,0.0,0.0
11:17:06,530540.0,0.0,0.0
11:17:06,530934.0,0.0,0.0
11:17:06,530726.0,0.0,0.0
11:17:06,530799.0,0.0,0.0
11:17:06,530918.0,0.0,0.0
11:17:06,530671.0,0.0,0.0
11:17:06,530961.0,0.0,0.0
11:17:06,530709.0,0.0,0.0
11:17:06,530626.0,0.0,0.0
11:17:06,530703.0,0.0,0.0
11:17:06,530263.0,0.0,0.0
11:17:06,530448.0,0.0,0.0
11:17:06,530108.0,0.0,0.0
11:17:06,530011.0,0.0,0.0
11:17:06,529993.0,0.0,0.0
11:17:06,529729.0,0.0,0.0
11:17:06,529909.0,0.0,0.0
11:17:06,529685.0,0.0,0.0
11:17:06,529694.0,0.0,0.0
11:17:06,529801.0,0.0,0.0
11:17:06,529568.0,0.0,0.0
11:17:06,529794.0,0.0,0.0
11:17:06,529538.0,0.0,0.0
11:17:06,529584.0,0.0,0.0
11:17:06,529698.0,0.0,0.0
11:17:06,529290.0,0.0,0.0
11:17:06,529489.0,0.0,0.0
11:17:06,529217.0,0.0,0.0
11:17:06,529274.0,0.0,0.0
11:17:06,529287.0,0.0,0.0
11:17:06,529084.0,0.0,0.0
11:17:06,529319.0,0.0,0.0
11:17:06,529173.0,0.0,0.0
11:17:06,529208.0,0.0,0.0
11:17:06,529404.0,0.0,0.0
11:17:06,529142.0,0.0,0.0
11:17:06,529407.0,0.0,0.0
11:17:06,529190.0,0.0,0.0
11:17:06,529242.0,0.0,0.0
11:17:06,529291.0,0.0,0.0
11:17:06,529117.0,0.0,0.0
11:17:06,529419.0,0.0,0.0
11:17:06,529247.0,0.0,0.0
11:17:06,529271.0,0.0,0.0
11:17:06,529448.0,0.0,0.0
11:17:06,529242.0,0.0,0.0
11:17:06,529528.0,0.0,0.0
11:17:06,529392.0,0.0,0.0
11:17:06,529457.0,0.0,0.0
11:17:06,529578.0,0.0,0.0
11:17:06,529419.0,0.0,0.0
11:17:06,529767.0,0.0,0.0
11:17:06,529521.0,0.0,0.0
11:17:06,529633.0,0.0,0.0
11:17:06,529805.0,0.0,0.0
11:17:06,529553.0,0.0,0.0
11:17:06,529829.0,0.0,0.0
11:17:06,529697.0,0.0,0.0
11:17:06,529713.0,0.0,0.0
11:17:06,529946.0,0.0,0.0
11:17:06,529726.0,0.0,0.0
11:17:06,530162.0,0.0,0.0
11:17:06,529944.0,0.0,0.0
11:17:06,530091.0,0.0,0.0
11:17:06,530393.0,0.0,0.0
11:17:06,530164.0,0.0,0.0
11:17:06,530542.0,0.0,0.0
11:17:06,530181.0,0.0,0.0
11:17:06,530061.0,0.0,0.0
11:17:06,530328.0,0.0,0.0
11:17:06,530118.0,0.0,0.0
11:17:06,530404.0,0.0,0.0
11:17:06,530189.0,0.0,0.0
11:17:06,530243.0,0.0,0.0
11:17:06,530569.0,0.0,0.0
11:17:06,530103.0,0.0,0.0
11:17:06,530423.0,0.0,0.0
11:17:06,530111.0,0.0,0.0
11:17:06,530077.0,0.0,0.0
11:17:06,530158.0,0.0,0.0
11:17:06,529813.0,0.0,0.0
11:17:06,530043.0,0.0,0.0
11:17:06,529826.0,0.0,0.0
11:17:06,529720.0,0.0,0.0
11:17:06,529924.0,0.0,0.0
11:17:06,529635.0,0.0,0.0
11:17:06,530071.0,0.0,0.0
11:17:06,529944.0,0.0,0.0
11:17:06,530006.0,0.0,0.0
11:17:06,530121.0,0.0,0.0
11:17:06,529870.0,0.0,0.0
11:17:06,530199.0,0.0,0.0
11:17:06,530012.0,0.0,0.0
11:17:06,529962.0,0.0,0.0
11:17:06,530095.0,0.0,0.0
11:17:06,529841.0,0.0,0.0
11:17:06,530098.0,0.0,0.0
11:17:06,529951.0,0.0,0.0
11:17:06,529972.0,0.0,0.0
11:17:06,530114.0,0.0,0.0
11:17:06,529723.0,0.0,0.0
11:17:06,529986.0,0.0,0.0
11:17:06,529891.0,0.0,0.0
11:17:06,529909.0,0.0,0.0
11:17:06,529981.0,0.0,0.0
11:17:06,529720.0,0.0,0.0
11:17:06,529914.0,0.0,0.0
11:17:06,529775.0,0.0,0.0
11:17:06,529687.0,0.0,0.0
11:17:07,529901.0,0.0,0.0
11:17:07,529639.0,0.0,0.0
11:17:07,530038.0,0.0,0.0
11:17:07,529824.0,0.0,0.0
11:17:07,529891.0,0.0,0.0
11:17:07,530003.0,0.0,0.0
11:17:07,529766.0,0.0,0.0
11:17:07,530033.0,0.0,0.0
11:17:07,529888.0,0.0,0.0
11:17:07,529823.0,0.0,0.0
11:17:07,530073.0,0.0,0.0
11:17:07,529813.0,0.0,0.0
11:17:07,530116.0,0.0,0.0
11:17:07,529913.0,0.0,0.0
11:17:07,529936.0,0.0,0.0
11:17:07,530093.0,0.0,0.0
11:17:07,529815.0,0.0,0.0
11:17:07,530081.0,0.0,0.0
11:17:07,529896.0,0.0,0.0
11:17:07,529998.0,0.0,0.0
11:17:07,530118.0,0.0,0.0
11:17:07,529663.0,0.0,0.0
11:17:07,529674.0,0.0,0.0
11:17:07,529533.0,0.0,0.0
11:17:07,529751.0,0.0,0.0
11:17:07,530239.0,0.0,0.0
11:17:07,530051.0,0.0,0.0
11:17:07,530402.0,0.0,0.0
11:17:07,530379.0,0.0,0.0
11:17:07,529805.0,0.0,0.0
11:17:07,529755.0,0.0,0.0
11:17:07,529514.0,0.0,0.0
11:17:07,529823.0,0.0,0.0
11:17:07,529837.0,0.0,0.0
11:17:07,529900.0,0.0,0.0
11:17:07,530216.0,0.0,0.0
11:17:07,529914.0,0.0,0.0
11:17:07,529982.0,0.0,0.0
11:17:07,530046.0,0.0,0.0
11:17:07,530395.0,0.0,0.0
11:17:07,530881.0,0.0,0.0
11:17:07,530220.0,0.0,0.0
11:17:07,530518.0,0.0,0.0
11:17:07,530346.0,0.0,0.0
11:17:07,530395.0,0.0,0.0
11:17:07,530534.0,0.0,0.0
11:17:07,529993.0,0.0,0.0
11:17:07,530138.0,0.0,0.0
11:17:07,530278.0,0.0,0.0
11:17:07,530274.0,0.0,0.0
11:17:07,530823.0,0.0,0.0
11:17:07,530701.0,0.0,0.0
11:17:07,531244.0,0.0,0.0
11:17:07,530973.0,0.0,0.0
11:17:07,531001.0,0.0,0.0
11:17:07,531340.0,0.0,0.0
11:17:07,531061.0,0.0,0.0
11:17:07,531070.0,0.0,0.0
11:17:07,530603.0,0.0,0.0
11:17:07,530541.0,0.0,0.0
11:17:07,530641.0,0.0,0.0
11:17:07,530114.0,0.0,0.0
11:17:07,530411.0,0.0,0.0
11:17:07,530363.0,0.0,0.0
11:17:07,530347.0,0.0,0.0
11:17:07,530787.0,0.0,0.0
11:17:07,530387.0,0.0,0.0
11:17:07,530716.0,0.0,0.0
11:17:07,530499.0,0.0,0.0
11:17:07,530618.0,0.0,0.0
11:17:07,530884.0,0.0,0.0
11:17:07,530662.0,0.0,0.0
11:17:07,530980.0,0.0,0.0
11:17:07,530899.0,0.0,0.0
11:17:07,530777.0,0.0,0.0
11:17:07,530988.0,0.0,0.0
11:17:07,530683.0,0.0,0.0
11:17:07,531061.0,0.0,0.0
11:17:07,530829.0,0.0,0.0
11:17:07,530740.0,0.0,0.0
11:17:07,530883.0,0.0,0.0
11:17:07,530611.0,0.0,0.0
11:17:07,530921.0,0.0,0.0
11:17:07,530828.0,0.0,0.0
11:17:07,530949.0,0.0,0.0
11:17:07,531111.0,0.0,0.0
11:17:07,530753.0,0.0,0.0
11:17:07,530904.0,0.0,0.0
11:17:07,530784.0,0.0,0.0
11:17:07,530721.0,0.0,0.0
11:17:07,531060.0,0.0,0.0
11:17:07,530901.0,0.0,0.0
11:17:07,530662.0,0.0,0.0
11:17:07,530331.0,0.0,0.0
11:17:07,530341.0,0.0,0.0
11:17:07,530597.0,0.0,0.0
11:17:07,530491.0,0.0,0.0
11:17:07,530719.0,0.0,0.0
11:17:07,530691.0,0.0,0.0
11:17:07,530574.0,0.0,0.0
11:17:07,530652.0,0.0,0.0
11:17:07,530441.0,0.0,0.0
11:17:07,530945.0,0.0,0.0
11:17:07,530928.0,0.0,0.0
11:17:07,530682.0,0.0,0.0
11:17:07,530825.0,0.0,0.0
11:17:07,530542.0,0.0,0.0
11:17:07,530783.0,0.0,0.0
11:17:07,530688.0,0.0,0.0
11:17:07,530741.0,0.0,0.0
11:17:07,530986.0,0.0,0.0
11:17:07,530831.0,0.0,0.0
11:17:07,531134.0,0.0,0.0
11:17:07,531001.0,0.0,0.0
11:17:07,530978.0,0.0,0.0
11:17:07,531104.0,0.0,0.0
11:17:07,530806.0,0.0,0.0
11:17:07,531126.0,0.0,0.0
11:17:07,530880.0,0.0,0.0
11:17:07,530913.0,0.0,0.0
11:17:07,530976.0,0.0,0.0
11:17:07,530768.0,0.0,0.0
11:17:07,530969.0,0.0,0.0
11:17:07,530784.0,0.0,0.0
11:17:08,530773.0,0.0,0.0
11:17:08,531018.0,0.0,0.0
11:17:08,530768.0,0.0,0.0
11:17:08,531119.0,0.0,0.0
11:17:08,530878.0,0.0,0.0
11:17:08,530912.0,0.0,0.0
11:17:08,531179.0,0.0,0.0
11:17:08,530948.0,0.0,0.0
11:17:08,531151.0,0.0,0.0
11:17:08,530918.0,0.0,0.0
11:17:08,531021.0,0.0,0.0
11:17:08,531266.0,0.0,0.0
11:17:08,530986.0,0.0,0.0
11:17:08,531339.0,0.0,0.0
11:17:08,531289.0,0.0,0.0
11:17:08,531248.0,0.0,0.0
11:17:08,531497.0,0.0,0.0
11:17:08,531004.0,0.0,0.0
11:17:08,531354.0,0.0,0.0
11:17:08,531141.0,0.0,0.0
11:17:08,531254.0,0.0,0.0
11:17:08,531583.0,0.0,0.0
11:17:08,531234.0,0.0,0.0
11:17:08,531454.0,0.0,0.0
11:17:08,531245.0,0.0,0.0
11:17:08,531226.0,0.0,0.0
11:17:08,531526.0,0.0,0.0
11:17:08,531132.0,0.0,0.0
11:17:08,531541.0,0.0,0.0
11:17:08,531306.0,0.0,0.0
11:17:08,531309.0,0.0,0.0
11:17:08,531560.0,0.0,0.0
11:17:08,531266.0,0.0,0.0
11:17:08,531634.0,0.0,0.0
11:17:08,531441.0,0.0,0.0
11:17:08,531416.0,0.0,0.0
11:17:08,531579.0,0.0,0.0
11:17:08,531302.0,0.0,0.0
11:17:08,531571.0,0.0,0.0
11:17:08,531406.0,0.0,0.0
11:17:08,531368.0,0.0,0.0
11:17:08,531590.0,0.0,0.0
11:17:08,531203.0,0.0,0.0
11:17:08,531512.0,0.0,0.0
11:17:08,531267.0,0.0,0.0
11:17:08,531372.0,0.0,0.0
11:17:08,531516.0,0.0,0.0
11:17:08,531291.0,0.0,0.0
11:17:08,531570.0,0.0,0.0
11:17:08,531423.0,0.0,0.0
11:17:08,531397.0,0.0,0.0
11:17:08,531624.0,0.0,0.0
11:17:08,531326.0,0.0,0.0
11:17:08,531641.0,0.0,0.0
11:17:08,531472.0,0.0,0.0
11:17:08,531529.0,0.0,0.0
11:17:08,531662.0,0.0,0.0
11:17:08,531407.0,0.0,0.0
11:17:08,531736.0,0.0,0.0
11:17:08,531546.0,0.0,0.0
11:17:08,531613.0,0.0,0.0
11:17:08,531754.0,0.0,0.0
11:17:08,531588.0,0.0,0.0
11:17:08,531866.0,0.0,0.0
11:17:08,531683.0,0.0,0.0
11:17:08,531633.0,0.0,0.0
11:17:08,531841.0,0.0,0.0
11:17:08,531530.0,0.0,0.0
11:17:08,531826.0,0.0,0.0
11:17:08,531557.0,0.0,0.0
11:17:08,531607.0,0.0,0.0
11:17:08,531681.0,0.0,0.0
11:17:08,531519.0,0.0,0.0
11:17:08,531691.0,0.0,0.0
11:17:08,531545.0,0.0,0.0
11:17:08,531539.0,0.0,0.0
11:17:08,531771.0,0.0,0.0
11:17:08,531444.0,0.0,0.0
11:17:08,531699.0,0.0,0.0
11:17:08,531452.0,0.0,0.0
11:17:08,531437.0,0.0,0.0
11:17:08,531548.0,0.0,0.0
11:17:08,531278.0,0.0,0.0
11:17:08,531533.0,0.0,0.0
11:17:08,531271.0,0.0,0.0
11:17:08,531332.0,0.0,0.0
11:17:08,531473.0,0.0,0.0
11:17:08,531254.0,0.0,0.0
11:17:08,531446.0,0.0,0.0
11:17:08,531354.0,0.0,0.0
11:17:08,531411.0,0.0,0.0
11:17:08,531665.0,0.0,0.0
11:17:08,531298.0,0.0,0.0
11:17:08,531643.0,0.0,0.0
11:17:08,531258.0,0.0,0.0
11:17:08,531279.0,0.0,0.0
11:17:08,531379.0,0.0,0.0
11:17:08,531171.0,0.0,0.0
11:17:08,531423.0,0.0,0.0
11:17:08,531350.0,0.0,0.0
11:17:08,531331.0,0.0,0.0
11:17:08,531458.0,0.0,0.0
11:17:08,531100.0,0.0,0.0
11:17:08,531429.0,0.0,0.0
11:17:08,531182.0,0.0,0.0
11:17:08,531201.0,0.0,0.0
11:17:08,531233.0,0.0,0.0
11:17:08,530939.0,0.0,0.0
11:17:08,531257.0,0.0,0.0
11:17:08,531037.0,0.0,0.0
11:17:08,531041.0,0.0,0.0
11:17:08,531183.0,0.0,0.0
11:17:08,530904.0,0.0,0.0
11:17:08,531263.0,0.0,0.0
11:17:08,531156.0,0.0,0.0
11:17:08,531123.0,0.0,0.0
11:17:08,531415.0,0.0,0.0
11:17:08,531002.0,0.0,0.0
11:17:08,531461.0,0.0,0.0
11:17:08,531237.0,0.0,0.0
11:17:08,531288.0,0.0,0.0
11:17:08,531504.0,0.0,0.0
11:17:08,531245.0,0.0,0.0
11:17:08,531551.0,0.0,0.0
11:17:08,531432.0,0.0,0.0
11:17:09,531351.0,0.0,0.0
11:17:09,531651.0,0.0,0.0
11:17:09,531342.0,0.0,0.0
11:17:09,531734.0,0.0,0.0
11:17:09,531591.0,0.0,0.0
11:17:09,531621.0,0.0,0.0
11:17:09,531824.0,0.0,0.0
11:17:09,531538.0,0.0,0.0
11:17:09,531895.0,0.0,0.0
11:17:09,531678.0,0.0,0.0
11:17:09,531692.0,0.0,0.0
11:17:09,531864.0,0.0,0.0
11:17:09,531660.0,0.0,0.0
11:17:09,531938.0,0.0,0.0
11:17:09,531833.0,0.0,0.0
11:17:09,531775.0,0.0,0.0
11:17:09,532074.0,0.0,0.0
11:17:09,531852.0,0.0,0.0
11:17:09,532299.0,0.0,0.0
11:17:09,532128.0,0.0,0.0
11:17:09,532263.0,0.0,0.0
11:17:09,532451.0,0.0,0.0
11:17:09,532268.0,0.0,0.0
11:17:09,532469.0,0.0,0.0
11:17:09,532374.0,0.0,0.0
11:17:09,532416.0,0.0,0.0
11:17:09,532631.0,0.0,0.0
11:17:09,532287.0,0.0,0.0
11:17:09,532543.0,0.0,0.0
11:17:09,532328.0,0.0,0.0
11:17:09,532394.0,0.0,0.0
11:17:09,532517.0,0.0,0.0
11:17:09,532291.0,0.0,0.0
11:17:09,532542.0,0.0,0.0
11:17:09,532424.0,0.0,0.0
11:17:09,532523.0,0.0,0.0
11:17:09,532632.0,0.0,0.0
11:17:09,532447.0,0.0,0.0
11:17:09,532656.0,0.0,0.0
11:17:09,532568.0,0.0,0.0
11:17:09,532599.0,0.0,0.0
11:17:09,532798.0,0.0,0.0
11:17:09,532460.0,0.0,0.0
11:17:09,532787.0,0.0,0.0
11:17:09,532577.0,0.0,0.0
11:17:09,532708.0,0.0,0.0
11:17:09,532841.0,0.0,0.0
11:17:09,532597.0,0.0,0.0
11:17:09,532646.0,0.0,0.0
11:17:09,532497.0,0.0,0.0
11:17:09,532505.0,0.0,0.0
11:17:09,532759.0,0.0,0.0
11:17:09,532508.0,0.0,0.0
11:17:09,532876.0,0.0,0.0
11:17:09,532705.0,0.0,0.0
11:17:09,532786.0,0.0,0.0
11:17:09,533071.0,0.0,0.0
11:17:09,532875.0,0.0,0.0
11:17:09,533151.0,0.0,0.0
11:17:09,533077.0,0.0,0.0
11:17:09,533138.0,0.0,0.0
11:17:09,533229.0,0.0,0.0
11:17:09,532883.0,0.0,0.0
11:17:09,533160.0,0.0,0.0
11:17:09,533029.0,0.0,0.0
11:17:09,532980.0,0.0,0.0
11:17:09,533247.0,0.0,0.0
11:17:09,532906.0,0.0,0.0
11:17:09,533363.0,0.0,0.0
11:17:09,533229.0,0.0,0.0
11:17:09,533268.0,0.0,0.0
11:17:09,533458.0,0.0,0.0
11:17:09,533223.0,0.0,0.0
11:17:09,533459.0,0.0,0.0
11:17:09,533342.0,0.0,0.0
11:17:09,533225.0,0.0,0.0
11:17:09,533431.0,0.0,0.0
11:17:09,533244.0,0.0,0.0
11:17:09,533646.0,0.0,0.0
11:17:09,533555.0,0.0,0.0
11:17:09,533616.0,0.0,0.0
11:17:09,533857.0,0.0,0.0
11:17:09,533761.0,0.0,0.0
11:17:09,533961.0,0.0,0.0
11:17:09,533650.0,0.0,0.0
11:17:09,533718.0,0.0,0.0
11:17:09,534038.0,0.0,0.0
11:17:09,533911.0,0.0,0.0
11:17:09,534342.0,0.0,0.0
11:17:09,534379.0,0.0,0.0
11:17:09,534443.0,0.0,0.0
11:17:09,535063.0,0.0,0.0
11:17:09,534786.0,0.0,0.0
11:17:09,535200.0,0.0,0.0
11:17:09,534943.0,0.0,0.0
11:17:09,534759.0,0.0,0.0
11:17:09,534870.0,0.0,0.0
11:17:09,534609.0,0.0,0.0
11:17:09,534784.0,0.0,0.0
11:17:09,534820.0,0.0,0.0
11:17:09,534642.0,0.0,0.0
11:17:09,534848.0,0.0,0.0
11:17:09,534311.0,0.0,0.0
11:17:09,534577.0,0.0,0.0
11:17:09,534459.0,0.0,0.0
11:17:09,534463.0,0.0,0.0
11:17:09,534646.0,0.0,0.0
11:17:09,534359.0,0.0,0.0
11:17:09,534732.0,0.0,0.0
11:17:09,534585.0,0.0,0.0
11:17:09,534521.0,0.0,0.0
11:17:09,534695.0,0.0,0.0
11:17:09,534414.0,0.0,0.0
11:17:09,534609.0,0.0,0.0
11:17:09,534490.0,0.0,0.0
11:17:09,534348.0,0.0,0.0
11:17:09,534549.0,0.0,0.0
11:17:09,534127.0,0.0,0.0
11:17:09,534467.0,0.0,0.0
11:17:09,534256.0,0.0,0.0
11:17:09,534235.0,0.0,0.0
11:17:09,534338.0,0.0,0.0
11:17:09,534089.0,0.0,0.0
11:17:09,534309.0,0.0,0.0
11:17:09,534259.0,0.0,0.0
11:17:10,534060.0,0.0,0.0
11:17:10,534277.0,0.0,0.0
11:17:10,533899.0,0.0,0.0
11:17:10,534165.0,0.0,0.0
11:17:10,533942.0,0.0,0.0
11:17:10,533775.0,0.0,0.0
11:17:10,533846.0,0.0,0.0
11:17:10,533450.0,0.0,0.0
11:17:10,533463.0,0.0,0.0
11:17:10,533459.0,0.0,0.0
11:17:10,533617.0,0.0,0.0
11:17:10,533748.0,0.0,0.0
11:17:10,533405.0,0.0,0.0
11:17:10,533563.0,0.0,0.0
11:17:10,533329.0,0.0,0.0
11:17:10,532953.0,0.0,0.0
11:17:10,533028.0,0.0,0.0
11:17:10,532622.0,0.0,0.0
11:17:10,532911.0,0.0,0.0
11:17:10,532634.0,0.0,0.0
11:17:10,532697.0,0.0,0.0
11:17:10,532758.0,0.0,0.0
11:17:10,532421.0,0.0,0.0
11:17:10,532578.0,0.0,0.0
11:17:10,532442.0,0.0,0.0
11:17:10,532238.0,0.0,0.0
11:17:10,532430.0,0.0,0.0
11:17:10,531988.0,0.0,0.0
11:17:10,532262.0,0.0,0.0
11:17:10,531953.0,0.0,0.0
11:17:10,531913.0,0.0,0.0
11:17:10,532013.0,0.0,0.0
11:17:10,531666.0,0.0,0.0
11:17:10,531827.0,0.0,0.0
11:17:10,531628.0,0.0,0.0
11:17:10,531509.0,0.0,0.0
11:17:10,531743.0,0.0,0.0
11:17:10,531333.0,0.0,0.0
11:17:10,531563.0,0.0,0.0
11:17:10,531366.0,0.0,0.0
11:17:10,531203.0,0.0,0.0
11:17:10,531446.0,0.0,0.0
11:17:10,530926.0,0.0,0.0
11:17:10,531249.0,0.0,0.0
11:17:10,531048.0,0.0,0.0
11:17:10,530969.0,0.0,0.0
11:17:10,531236.0,0.0,0.0
11:17:10,530844.0,0.0,0.0
11:17:10,531197.0,0.0,0.0
11:17:10,531100.0,0.0,0.0
11:17:10,530976.0,0.0,0.0
11:17:10,531288.0,0.0,0.0
11:17:10,530779.0,0.0,0.0
11:17:10,531144.0,0.0,0.0
11:17:10,530956.0,0.0,0.0
11:17:10,530876.0,0.0,0.0
11:17:10,531027.0,0.0,0.0
11:17:10,530568.0,0.0,0.0
11:17:10,530814.0,0.0,0.0
11:17:10,530649.0,0.0,0.0
11:17:10,530389.0,0.0,0.0
11:17:10,530479.0,0.0,0.0
11:17:10,530088.0,0.0,0.0
11:17:10,530439.0,0.0,0.0
11:17:10,530198.0,0.0,0.0
11:17:10,530038.0,0.0,0.0
11:17:10,530221.0,0.0,0.0
11:17:10,529882.0,0.0,0.0
11:17:10,530119.0,0.0,0.0
11:17:10,529898.0,0.0,0.0
11:17:10,529766.0,0.0,0.0
11:17:10,529851.0,0.0,0.0
11:17:10,529569.0,0.0,0.0
11:17:10,529776.0,0.0,0.0
11:17:10,529633.0,0.0,0.0
11:17:10,529532.0,0.0,0.0
11:17:10,529823.0,0.0,0.0
11:17:10,529575.0,0.0,0.0
11:17:10,529790.0,0.0,0.0
11:17:10,529520.0,0.0,0.0
11:17:10,529522.0,0.0,0.0
11:17:10,529736.0,0.0,0.0
11:17:10,529445.0,0.0,0.0
11:17:10,529617.0,0.0,0.0
11:17:10,529380.0,0.0,0.0
11:17:10,529342.0,0.0,0.0
11:17:10,529520.0,0.0,0.0
11:17:10,529231.0,0.0,0.0
11:17:10,529490.0,0.0,0.0
11:17:10,529311.0,0.0,0.0
11:17:10,529301.0,0.0,0.0
11:17:10,529504.0,0.0,0.0
11:17:10,529270.0,0.0,0.0
11:17:10,529453.0,0.0,0.0
11:17:10,529018.0,0.0,0.0
11:17:10,528909.0,0.0,0.0
11:17:10,529040.0,0.0,0.0
11:17:10,528930.0,0.0,0.0
11:17:10,529213.0,0.0,0.0
11:17:10,529088.0,0.0,0.0
11:17:10,529072.0,0.0,0.0
11:17:10,529239.0,0.0,0.0
11:17:10,528914.0,0.0,0.0
11:17:10,529243.0,0.0,0.0
11:17:10,529035.0,0.0,0.0
11:17:10,529029.0,0.0,0.0
11:17:10,529175.0,0.0,0.0
11:17:10,528899.0,0.0,0.0
11:17:10,529095.0,0.0,0.0
11:17:10,528931.0,0.0,0.0
11:17:10,528888.0,0.0,0.0
11:17:10,529047.0,0.0,0.0
11:17:10,528698.0,0.0,0.0
11:17:10,528922.0,0.0,0.0
11:17:10,528796.0,0.0,0.0
11:17:10,528838.0,0.0,0.0
11:17:10,529054.0,0.0,0.0
11:17:10,528819.0,0.0,0.0
11:17:10,529178.0,0.0,0.0
11:17:10,528992.0,0.0,0.0
11:17:10,528947.0,0.0,0.0
11:17:10,529267.0,0.0,0.0
11:17:10,529060.0,0.0,0.0
11:17:10,529295.0,0.0,0.0
11:17:10,529275.0,0.0,0.0
11:17:11,529316.0,0.0,0.0
11:17:11,529770.0,0.0,0.0
11:17:11,529136.0,0.0,0.0
11:17:11,529564.0,0.0,0.0
11:17:11,529288.0,0.0,0.0
11:17:11,529033.0,0.0,0.0
11:17:11,529195.0,0.0,0.0
11:17:11,528928.0,0.0,0.0
11:17:11,529172.0,0.0,0.0
11:17:11,528888.0,0.0,0.0
11:17:11,528771.0,0.0,0.0
11:17:11,528992.0,0.0,0.0
11:17:11,528867.0,0.0,0.0
11:17:11,529243.0,0.0,0.0
11:17:11,529200.0,0.0,0.0
11:17:11,528981.0,0.0,0.0
11:17:11,529105.0,0.0,0.0
11:17:11,528569.0,0.0,0.0
11:17:11,528988.0,0.0,0.0
11:17:11,528818.0,0.0,0.0
11:17:11,528960.0,0.0,0.0
11:17:11,529235.0,0.0,0.0
11:17:11,529021.0,0.0,0.0
11:17:11,529153.0,0.0,0.0
11:17:11,529077.0,0.0,0.0
11:17:11,528936.0,0.0,0.0
11:17:11,529151.0,0.0,0.0
11:17:11,528798.0,0.0,0.0
11:17:11,529030.0,0.0,0.0
11:17:11,528716.0,0.0,0.0
11:17:11,528684.0,0.0,0.0
11:17:11,528923.0,0.0,0.0
11:17:11,528677.0,0.0,0.0
11:17:11,528963.0,0.0,0.0
11:17:11,528769.0,0.0,0.0
11:17:11,528736.0,0.0,0.0
11:17:11,528828.0,0.0,0.0
11:17:11,528636.0,0.0,0.0
11:17:11,528736.0,0.0,0.0
11:17:11,528505.0,0.0,0.0
11:17:11,528304.0,0.0,0.0
11:17:11,528523.0,0.0,0.0
11:17:11,528223.0,0.0,0.0
11:17:11,528556.0,0.0,0.0
11:17:11,528511.0,0.0,0.0
11:17:11,528484.0,0.0,0.0
11:17:11,528577.0,0.0,0.0
11:17:11,528348.0,0.0,0.0
11:17:11,528542.0,0.0,0.0
11:17:11,528464.0,0.0,0.0
11:17:11,528391.0,0.0,0.0
11:17:11,528583.0,0.0,0.0
11:17:11,528180.0,0.0,0.0
11:17:11,528473.0,0.0,0.0
11:17:11,528295.0,0.0,0.0
11:17:11,528246.0,0.0,0.0
11:17:11,528446.0,0.0,0.0
11:17:11,528191.0,0.0,0.0
11:17:11,528478.0,0.0,0.0
11:17:11,528210.0,0.0,0.0
11:17:11,528183.0,0.0,0.0
11:17:11,528406.0,0.0,0.0
11:17:11,528232.0,0.0,0.0
11:17:11,528535.0,0.0,0.0
11:17:11,528422.0,0.0,0.0
11:17:11,528230.0,0.0,0.0
11:17:11,528409.0,0.0,0.0
11:17:11,528043.0,0.0,0.0
11:17:11,528325.0,0.0,0.0
11:17:11,528174.0,0.0,0.0
11:17:11,528141.0,0.0,0.0
11:17:11,528393.0,0.0,0.0
11:17:11,528086.0,0.0,0.0
11:17:11,528069.0,0.0,0.0
11:17:11,528052.0,0.0,0.0
11:17:11,527946.0,0.0,0.0
11:17:11,528313.0,0.0,0.0
11:17:11,528304.0,0.0,0.0
11:17:11,528590.0,0.0,0.0
11:17:11,528366.0,0.0,0.0
11:17:11,528088.0,0.0,0.0
11:17:11,528106.0,0.0,0.0
11:17:11,527962.0,0.0,0.0
11:17:11,528459.0,0.0,0.0
11:17:11,528806.0,0.0,0.0
11:17:11,528373.0,0.0,0.0
11:17:11,528036.0,0.0,0.0
11:17:11,527738.0,0.0,0.0
11:17:11,528095.0,0.0,0.0
11:17:11,528100.0,0.0,0.0
11:17:11,528019.0,0.0,0.0
11:17:11,528470.0,0.0,0.0
11:17:11,528269.0,0.0,0.0
11:17:11,528503.0,0.0,0.0
11:17:11,528315.0,0.0,0.0
11:17:11,528367.0,0.0,0.0
11:17:11,528521.0,0.0,0.0
11:17:11,528306.0,0.0,0.0
11:17:11,528436.0,0.0,0.0
11:17:11,528309.0,0.0,0.0
11:17:11,528399.0,0.0,0.0
11:17:11,528989.0,0.0,0.0
11:17:11,528726.0,0.0,0.0
11:17:11,528960.0,0.0,0.0
11:17:11,528781.0,0.0,0.0
11:17:11,528758.0,0.0,0.0
11:17:11,529107.0,0.0,0.0
11:17:11,528634.0,0.0,0.0
11:17:11,528894.0,0.0,0.0
11:17:11,528776.0,0.0,0.0
11:17:11,528592.0,0.0,0.0
11:17:11,528976.0,0.0,0.0
11:17:11,528686.0,0.0,0.0
11:17:11,528916.0,0.0,0.0
11:17:11,528933.0,0.0,0.0
11:17:11,528871.0,0.0,0.0
11:17:11,529314.0,0.0,0.0
11:17:11,528790.0,0.0,0.0
11:17:11,529089.0,0.0,0.0
11:17:11,528989.0,0.0,0.0
11:17:11,528999.0,0.0,0.0
11:17:11,529221.0,0.0,0.0
11:17:11,528913.0,0.0,0.0
11:17:11,528945.0,0.0,0.0
11:17:11,528829.0,0.0,0.0
11:17:12,528766.0,0.0,0.0
11:17:12,528972.0,0.0,0.0
11:17:12,528611.0,0.0,0.0
11:17:12,528990.0,0.0,0.0
11:17:12,528963.0,0.0,0.0
11:17:12,529046.0,0.0,0.0
11:17:12,529449.0,0.0,0.0
11:17:12,529316.0,0.0,0.0
11:17:12,529714.0,0.0,0.0
11:17:12,529546.0,0.0,0.0
11:17:12,529444.0,0.0,0.0
11:17:12,529564.0,0.0,0.0
11:17:12,529220.0,0.0,0.0
11:17:12,529428.0,0.0,0.0
11:17:12,529400.0,0.0,0.0
11:17:12,529343.0,0.0,0.0
11:17:12,529644.0,0.0,0.0
11:17:12,529333.0,0.0,0.0
11:17:12,529490.0,0.0,0.0
11:17:12,529134.0,0.0,0.0
11:17:12,529193.0,0.0,0.0
11:17:12,529535.0,0.0,0.0
11:17:12,529558.0,0.0,0.0
11:17:12,529043.0,0.0,0.0
11:17:12,528865.0,0.0,0.0
11:17:12,528991.0,0.0,0.0
11:17:12,529206.0,0.0,0.0
11:17:12,528968.0,0.0,0.0
11:17:12,529269.0,0.0,0.0
11:17:12,529256.0,0.0,0.0
11:17:12,529381.0,0.0,0.0
11:17:12,529557.0,0.0,0.0
11:17:12,529345.0,0.0,0.0
11:17:12,529583.0,0.0,0.0
11:17:12,529462.0,0.0,0.0
11:17:12,529513.0,0.0,0.0
11:17:12,529734.0,0.0,0.0
11:17:12,529382.0,0.0,0.0
11:17:12,529473.0,0.0,0.0
11:17:12,529473.0,0.0,0.0
11:17:12,529427.0,0.0,0.0
11:17:12,529654.0,0.0,0.0
11:17:12,529361.0,0.0,0.0
11:17:12,529716.0,0.0,0.0
11:17:12,529546.0,0.0,0.0
11:17:12,529559.0,0.0,0.0
11:17:12,529719.0,0.0,0.0
11:17:12,529431.0,0.0,0.0
11:17:12,529594.0,0.0,0.0
11:17:12,529483.0,0.0,0.0
11:17:12,529359.0,0.0,0.0
11:17:12,529639.0,0.0,0.0
11:17:12,529317.0,0.0,0.0
11:17:12,529638.0,0.0,0.0
11:17:12,529583.0,0.0,0.0
11:17:12,529623.0,0.0,0.0
11:17:12,529948.0,0.0,0.0
11:17:12,529758.0,0.0,0.0
11:17:12,529764.0,0.0,0.0
11:17:12,529526.0,0.0,0.0
11:17:12,529561.0,0.0,0.0
11:17:12,529823.0,0.0,0.0
11:17:12,529561.0,0.0,0.0
11:17:12,529798.0,0.0,0.0
11:17:12,529775.0,0.0,0.0
11:17:12,529719.0,0.0,0.0
11:17:12,530120.0,0.0,0.0
11:17:12,529802.0,0.0,0.0
11:17:12,530294.0,0.0,0.0
11:17:12,530258.0,0.0,0.0
11:17:12,530296.0,0.0,0.0
11:17:12,530604.0,0.0,0.0
11:17:12,530317.0,0.0,0.0
11:17:12,530686.0,0.0,0.0
11:17:12,530671.0,0.0,0.0
11:17:12,530391.0,0.0,0.0
11:17:12,530585.0,0.0,0.0
11:17:12,530175.0,0.0,0.0
11:17:12,530695.0,0.0,0.0
11:17:12,530441.0,0.0,0.0
11:17:12,530264.0,0.0,0.0
11:17:12,530654.0,0.0,0.0
11:17:12,530352.0,0.0,0.0
11:17:12,530676.0,0.0,0.0
11:17:12,530531.0,0.0,0.0
11:17:12,530425.0,0.0,0.0
11:17:12,530876.0,0.0,0.0
11:17:12,530477.0,0.0,0.0
11:17:12,530639.0,0.0,0.0
11:17:12,530525.0,0.0,0.0
11:17:12,530476.0,0.0,0.0
11:17:12,530879.0,0.0,0.0
11:17:12,530577.0,0.0,0.0
11:17:12,530997.0,0.0,0.0
11:17:12,530866.0,0.0,0.0
11:17:12,530960.0,0.0,0.0
11:17:12,531284.0,0.0,0.0
11:17:12,530910.0,0.0,0.0
11:17:12,530974.0,0.0,0.0
11:17:12,530914.0,0.0,0.0
11:17:12,530790.0,0.0,0.0
11:17:12,531153.0,0.0,0.0
11:17:12,530889.0,0.0,0.0
11:17:12,531158.0,0.0,0.0
11:17:12,530943.0,0.0,0.0
11:17:12,530879.0,0.0,0.0
11:17:12,531121.0,0.0,0.0
11:17:12,530869.0,0.0,0.0
11:17:12,531124.0,0.0,0.0
11:17:12,531020.0,0.0,0.0
11:17:12,530979.0,0.0,0.0
11:17:12,531211.0,0.0,0.0
11:17:12,530943.0,0.0,0.0
11:17:12,531166.0,0.0,0.0
11:17:12,531032.0,0.0,0.0
11:17:12,530914.0,0.0,0.0
11:17:12,531156.0,0.0,0.0
11:17:12,530723.0,0.0,0.0
11:17:12,531039.0,0.0,0.0
11:17:12,530815.0,0.0,0.0
11:17:12,530815.0,0.0,0.0
11:17:12,530963.0,0.0,0.0
11:17:12,530717.0,0.0,0.0
11:17:12,530867.0,0.0,0.0
11:17:12,530784.0,0.0,0.0
11:17:13,530780.0,0.0,0.0
11:17:13,531076.0,0.0,0.0
11:17:13,530741.0,0.0,0.0
11:17:13,530993.0,0.0,0.0
11:17:13,530811.0,0.0,0.0
11:17:13,530758.0,0.0,0.0
11:17:13,530907.0,0.0,0.0
11:17:13,530563.0,0.0,0.0
11:17:13,530821.0,0.0,0.0
11:17:13,530692.0,0.0,0.0
11:17:13,530662.0,0.0,0.0
11:17:13,530810.0,0.0,0.0
11:17:13,530549.0,0.0,0.0
11:17:13,530808.0,0.0,0.0
11:17:13,530733.0,0.0,0.0
11:17:13,530683.0,0.0,0.0
11:17:13,530893.0,0.0,0.0
11:17:13,530559.0,0.0,0.0
11:17:13,530871.0,0.0,0.0
11:17:13,530664.0,0.0,0.0
11:17:13,530655.0,0.0,0.0
11:17:13,530771.0,0.0,0.0
11:17:13,530522.0,0.0,0.0
11:17:13,530778.0,0.0,0.0
11:17:13,530658.0,0.0,0.0
11:17:13,530538.0,0.0,0.0
11:17:13,530802.0,0.0,0.0
11:17:13,530496.0,0.0,0.0
11:17:13,530748.0,0.0,0.0
11:17:13,530553.0,0.0,0.0
11:17:13,530489.0,0.0,0.0
11:17:13,530742.0,0.0,0.0
11:17:13,530459.0,0.0,0.0
11:17:13,530691.0,0.0,0.0
11:17:13,530556.0,0.0,0.0
11:17:13,530509.0,0.0,0.0
11:17:13,530704.0,0.0,0.0
11:17:13,530436.0,0.0,0.0
11:17:13,530664.0,0.0,0.0
11:17:13,530595.0,0.0,0.0
11:17:13,530590.0,0.0,0.0
11:17:13,530868.0,0.0,0.0
11:17:13,530658.0,0.0,0.0
11:17:13,530960.0,0.0,0.0
11:17:13,530816.0,0.0,0.0
11:17:13,530898.0,0.0,0.0
11:17:13,531103.0,0.0,0.0
11:17:13,530815.0,0.0,0.0
11:17:13,530933.0,0.0,0.0
11:17:13,530933.0,0.0,0.0
11:17:13,530901.0,0.0,0.0
11:17:13,531338.0,0.0,0.0
11:17:13,531089.0,0.0,0.0
11:17:13,531473.0,0.0,0.0
11:17:13,531434.0,0.0,0.0
11:17:13,531353.0,0.0,0.0
11:17:13,531733.0,0.0,0.0
11:17:13,531249.0,0.0,0.0
11:17:13,531568.0,0.0,0.0
11:17:13,531449.0,0.0,0.0
11:17:13,531299.0,0.0,0.0
11:17:13,531704.0,0.0,0.0
11:17:13,531291.0,0.0,0.0
11:17:13,531593.0,0.0,0.0
11:17:13,531559.0,0.0,0.0
11:17:13,531369.0,0.0,0.0
11:17:13,531799.0,0.0,0.0
11:17:13,531322.0,0.0,0.0
11:17:13,531776.0,0.0,0.0
11:17:13,531771.0,0.0,0.0
11:17:13,531785.0,0.0,0.0
11:17:13,532151.0,0.0,0.0
11:17:13,531912.0,0.0,0.0
11:17:13,532275.0,0.0,0.0
11:17:13,532235.0,0.0,0.0
11:17:13,532063.0,0.0,0.0
11:17:13,532476.0,0.0,0.0
11:17:13,532164.0,0.0,0.0
11:17:13,532493.0,0.0,0.0
11:17:13,532391.0,0.0,0.0
11:17:13,532374.0,0.0,0.0
11:17:13,532704.0,0.0,0.0
11:17:13,532383.0,0.0,0.0
11:17:13,532657.0,0.0,0.0
11:17:13,532545.0,0.0,0.0
11:17:13,532473.0,0.0,0.0
11:17:13,532706.0,0.0,0.0
11:17:13,532421.0,0.0,0.0
11:17:13,532678.0,0.0,0.0
11:17:13,532553.0,0.0,0.0
11:17:13,532368.0,0.0,0.0
11:17:13,532671.0,0.0,0.0
11:17:13,532279.0,0.0,0.0
11:17:13,532622.0,0.0,0.0
11:17:13,532465.0,0.0,0.0
11:17:13,532363.0,0.0,0.0
11:17:13,532606.0,0.0,0.0
11:17:13,532351.0,0.0,0.0
11:17:13,532564.0,0.0,0.0
11:17:13,532540.0,0.0,0.0
11:17:13,532396.0,0.0,0.0
11:17:13,532664.0,0.0,0.0
11:17:13,532314.0,0.0,0.0
11:17:13,532641.0,0.0,0.0
11:17:13,532431.0,0.0,0.0
11:17:13,532413.0,0.0,0.0
11:17:13,532742.0,0.0,0.0
11:17:13,532349.0,0.0,0.0
11:17:13,532609.0,0.0,0.0
11:17:13,532493.0,0.0,0.0
11:17:13,532533.0,0.0,0.0
11:17:13,532837.0,0.0,0.0
11:17:13,532533.0,0.0,0.0
11:17:13,532774.0,0.0,0.0
11:17:13,532680.0,0.0,0.0
11:17:13,532494.0,0.0,0.0
11:17:13,532828.0,0.0,0.0
11:17:13,532357.0,0.0,0.0
11:17:13,532737.0,0.0,0.0
11:17:13,532636.0,0.0,0.0
11:17:13,532538.0,0.0,0.0
11:17:13,532823.0,0.0,0.0
11:17:13,532492.0,0.0,0.0
11:17:13,532711.0,0.0,0.0
11:17:13,532528.0,0.0,0.0
11:17:13,532314.0,0.0,0.0
11:17:14,532708.0,0.0,0.0
11:17:14,532287.0,0.0,0.0
11:17:14,532802.0,0.0,0.0
11:17:14,532724.0,0.0,0.0
11:17:14,532556.0,0.0,0.0
11:17:14,532949.0,0.0,0.0
11:17:14,532488.0,0.0,0.0
11:17:14,532874.0,0.0,0.0
11:17:14,532813.0,0.0,0.0
11:17:14,532572.0,0.0,0.0
11:17:14,532852.0,0.0,0.0
11:17:14,532493.0,0.0,0.0
11:17:14,532643.0,0.0,0.0
11:17:14,532479.0,0.0,0.0
11:17:14,532136.0,0.0,0.0
11:17:14,532451.0,0.0,0.0
11:17:14,531972.0,0.0,0.0
11:17:14,532258.0,0.0,0.0
11:17:14,532115.0,0.0,0.0
11:17:14,531981.0,0.0,0.0
11:17:14,532219.0,0.0,0.0
11:17:14,531911.0,0.0,0.0
11:17:14,532127.0,0.0,0.0
11:17:14,532093.0,0.0,0.0
11:17:14,531864.0,0.0,0.0
11:17:14,532168.0,0.0,0.0
11:17:14,531804.0,0.0,0.0
11:17:14,532026.0,0.0,0.0
11:17:14,531953.0,0.0,0.0
11:17:14,531866.0,0.0,0.0
11:17:14,532113.0,0.0,0.0
11:17:14,531851.0,0.0,0.0
11:17:14,532089.0,0.0,0.0
11:17:14,531997.0,0.0,0.0
11:17:14,531939.0,0.0,0.0
11:17:14,532231.0,0.0,0.0
11:17:14,531888.0,0.0,0.0
11:17:14,532109.0,0.0,0.0
11:17:14,532013.0,0.0,0.0
11:17:14,531964.0,0.0,0.0
11:17:14,532147.0,0.0,0.0
11:17:14,531773.0,0.0,0.0
11:17:14,531979.0,0.0,0.0
11:17:14,531906.0,0.0,0.0
11:17:14,531784.0,0.0,0.0
11:17:14,532015.0,0.0,0.0
11:17:14,531724.0,0.0,0.0
11:17:14,531889.0,0.0,0.0
11:17:14,531875.0,0.0,0.0
11:17:14,531738.0,0.0,0.0
11:17:14,531986.0,0.0,0.0
11:17:14,531621.0,0.0,0.0
11:17:14,531881.0,0.0,0.0
11:17:14,531784.0,0.0,0.0
11:17:14,531634.0,0.0,0.0
11:17:14,531935.0,0.0,0.0
11:17:14,531504.0,0.0,0.0
11:17:14,531757.0,0.0,0.0
11:17:14,531663.0,0.0,0.0
11:17:14,531443.0,0.0,0.0
11:17:14,531743.0,0.0,0.0
11:17:14,531284.0,0.0,0.0
11:17:14,531593.0,0.0,0.0
11:17:14,531469.0,0.0,0.0
11:17:14,531194.0,0.0,0.0
11:17:14,531539.0,0.0,0.0
11:17:14,531043.0,0.0,0.0
11:17:14,531433.0,0.0,0.0
11:17:14,531343.0,0.0,0.0
11:17:14,531095.0,0.0,0.0
11:17:14,531447.0,0.0,0.0
11:17:14,531003.0,0.0,0.0
11:17:14,531262.0,0.0,0.0
11:17:14,531233.0,0.0,0.0
11:17:14,530976.0,0.0,0.0
11:17:14,531323.0,0.0,0.0
11:17:14,530591.0,0.0,0.0
11:17:14,530768.0,0.0,0.0
11:17:14,530717.0,0.0,0.0
11:17:14,530617.0,0.0,0.0
11:17:14,531146.0,0.0,0.0
11:17:14,530730.0,0.0,0.0
11:17:14,531030.0,0.0,0.0
11:17:14,530951.0,0.0,0.0
11:17:14,530663.0,0.0,0.0
11:17:14,531023.0,0.0,0.0
11:17:14,530529.0,0.0,0.0
11:17:14,530796.0,0.0,0.0
11:17:14,530694.0,0.0,0.0
11:17:14,530500.0,0.0,0.0
11:17:14,530894.0,0.0,0.0
11:17:14,530453.0,0.0,0.0
11:17:14,530729.0,0.0,0.0
11:17:14,530616.0,0.0,0.0
11:17:14,530435.0,0.0,0.0
11:17:14,530775.0,0.0,0.0
11:17:14,530347.0,0.0,0.0
11:17:14,530535.0,0.0,0.0
11:17:14,530433.0,0.0,0.0
11:17:14,530178.0,0.0,0.0
11:17:14,530488.0,0.0,0.0
11:17:14,530114.0,0.0,0.0
11:17:14,530380.0,0.0,0.0
11:17:14,530189.0,0.0,0.0
11:17:14,530003.0,0.0,0.0
11:17:14,530257.0,0.0,0.0
11:17:14,529996.0,0.0,0.0
11:17:14,530202.0,0.0,0.0
11:17:14,530016.0,0.0,0.0
11:17:14,529849.0,0.0,0.0
11:17:14,530139.0,0.0,0.0
11:17:14,529740.0,0.0,0.0
11:17:14,529954.0,0.0,0.0
11:17:14,529802.0,0.0,0.0
11:17:14,529699.0,0.0,0.0
11:17:14,529852.0,0.0,0.0
11:17:14,529481.0,0.0,0.0
11:17:14,529773.0,0.0,0.0
11:17:14,529557.0,0.0,0.0
11:17:14,529562.0,0.0,0.0
11:17:14,529838.0,0.0,0.0
11:17:14,529594.0,0.0,0.0
11:17:14,529886.0,0.0,0.0
11:17:14,529817.0,0.0,0.0
11:17:14,529776.0,0.0,0.0
11:17:15,529968.0,0.0,0.0
11:17:15,529481.0,0.0,0.0
11:17:15,529651.0,0.0,0.0
11:17:15,529363.0,0.0,0.0
11:17:15,529229.0,0.0,0.0
11:17:15,529488.0,0.0,0.0
11:17:15,529328.0,0.0,0.0
11:17:15,530026.0,0.0,0.0
11:17:15,529756.0,0.0,0.0
11:17:15,528922.0,0.0,0.0
11:17:15,529213.0,0.0,0.0
11:17:15,529123.0,0.0,0.0
11:17:15,529504.0,0.0,0.0
11:17:15,529547.0,0.0,0.0
11:17:15,529451.0,0.0,0.0
11:17:15,529684.0,0.0,0.0
11:17:15,529286.0,0.0,0.0
11:17:15,529635.0,0.0,0.0
11:17:15,529486.0,0.0,0.0
11:17:15,529336.0,0.0,0.0
11:17:15,529648.0,0.0,0.0
11:17:15,529280.0,0.0,0.0
11:17:15,529496.0,0.0,0.0
11:17:15,529434.0,0.0,0.0
11:17:15,529308.0,0.0,0.0
11:17:15,529712.0,0.0,0.0
11:17:15,529351.0,0.0,0.0
11:17:15,529658.0,0.0,0.0
11:17:15,529585.0,0.0,0.0
11:17:15,529451.0,0.0,0.0
11:17:15,529631.0,0.0,0.0
11:17:15,528994.0,0.0,0.0
11:17:15,529194.0,0.0,0.0
11:17:15,529059.0,0.0,0.0
11:17:15,528994.0,0.0,0.0
11:17:15,529482.0,0.0,0.0
11:17:15,529095.0,0.0,0.0
11:17:15,529421.0,0.0,0.0
11:17:15,529316.0,0.0,0.0
11:17:15,529008.0,0.0,0.0
11:17:15,529391.0,0.0,0.0
11:17:15,528961.0,0.0,0.0
11:17:15,529179.0,0.0,0.0
11:17:15,528937.0,0.0,0.0
11:17:15,528734.0,0.0,0.0
11:17:15,529035.0,0.0,0.0
11:17:15,528553.0,0.0,0.0
11:17:15,528743.0,0.0,0.0
11:17:15,528671.0,0.0,0.0
11:17:15,528490.0,0.0,0.0
11:17:15,528801.0,0.0,0.0
11:17:15,528345.0,0.0,0.0
11:17:15,528579.0,0.0,0.0
11:17:15,528413.0,0.0,0.0
11:17:15,528366.0,0.0,0.0
11:17:15,528608.0,0.0,0.0
11:17:15,528110.0,0.0,0.0
11:17:15,528241.0,0.0,0.0
11:17:15,528104.0,0.0,0.0
11:17:15,527923.0,0.0,0.0
11:17:15,528176.0,0.0,0.0
11:17:15,527771.0,0.0,0.0
11:17:15,527919.0,0.0,0.0
11:17:15,527825.0,0.0,0.0
11:17:15,527631.0,0.0,0.0
11:17:15,527771.0,0.0,0.0
11:17:15,527362.0,0.0,0.0
11:17:15,527719.0,0.0,0.0
11:17:15,527671.0,0.0,0.0
11:17:15,527651.0,0.0,0.0
11:17:15,527956.0,0.0,0.0
11:17:15,527608.0,0.0,0.0
11:17:15,527839.0,0.0,0.0
11:17:15,527798.0,0.0,0.0
11:17:15,527593.0,0.0,0.0
11:17:15,527910.0,0.0,0.0
11:17:15,527459.0,0.0,0.0
11:17:15,527704.0,0.0,0.0
11:17:15,527646.0,0.0,0.0
11:17:15,527509.0,0.0,0.0
11:17:15,527784.0,0.0,0.0
11:17:15,527456.0,0.0,0.0
11:17:15,527736.0,0.0,0.0
11:17:15,527672.0,0.0,0.0
11:17:15,527459.0,0.0,0.0
11:17:15,527719.0,0.0,0.0
11:17:15,527374.0,0.0,0.0
11:17:15,527653.0,0.0,0.0
11:17:15,527483.0,0.0,0.0
11:17:15,527322.0,0.0,0.0
11:17:15,527683.0,0.0,0.0
11:17:15,527328.0,0.0,0.0
11:17:15,527657.0,0.0,0.0
11:17:15,527549.0,0.0,0.0
11:17:15,527422.0,0.0,0.0
11:17:15,527672.0,0.0,0.0
11:17:15,527352.0,0.0,0.0
11:17:15,527643.0,0.0,0.0
11:17:15,527535.0,0.0,0.0
11:17:15,527328.0,0.0,0.0
11:17:15,527656.0,0.0,0.0
11:17:15,527299.0,0.0,0.0
11:17:15,527581.0,0.0,0.0
11:17:15,527507.0,0.0,0.0
11:17:15,527433.0,0.0,0.0
11:17:15,527737.0,0.0,0.0
11:17:15,527399.0,0.0,0.0
11:17:15,527585.0,0.0,0.0
11:17:15,527458.0,0.0,0.0
11:17:15,527349.0,0.0,0.0
11:17:15,527662.0,0.0,0.0
11:17:15,527372.0,0.0,0.0
11:17:15,527618.0,0.0,0.0
11:17:15,527404.0,0.0,0.0
11:17:15,527170.0,0.0,0.0
11:17:15,527451.0,0.0,0.0
11:17:15,527265.0,0.0,0.0
11:17:15,527703.0,0.0,0.0
11:17:15,527693.0,0.0,0.0
11:17:15,527644.0,0.0,0.0
11:17:15,527865.0,0.0,0.0
11:17:15,527505.0,0.0,0.0
11:17:15,527654.0,0.0,0.0
11:17:15,527628.0,0.0,0.0
11:17:16,527443.0,0.0,0.0
11:17:16,527684.0,0.0,0.0
11:17:16,527343.0,0.0,0.0
11:17:16,527574.0,0.0,0.0
11:17:16,527503.0,0.0,0.0
11:17:16,527386.0,0.0,0.0
11:17:16,527535.0,0.0,0.0
11:17:16,527285.0,0.0,0.0
11:17:16,527516.0,0.0,0.0
11:17:16,527455.0,0.0,0.0
11:17:16,527321.0,0.0,0.0
11:17:16,527539.0,0.0,0.0
11:17:16,527260.0,0.0,0.0
11:17:16,527471.0,0.0,0.0
11:17:16,527429.0,0.0,0.0
11:17:16,527321.0,0.0,0.0
11:17:16,527491.0,0.0,0.0
11:17:16,527151.0,0.0,0.0
11:17:16,527343.0,0.0,0.0
11:17:16,527242.0,0.0,0.0
11:17:16,527168.0,0.0,0.0
11:17:16,527381.0,0.0,0.0
11:17:16,527164.0,0.0,0.0
11:17:16,527334.0,0.0,0.0
11:17:16,527311.0,0.0,0.0
11:17:16,527195.0,0.0,0.0
11:17:16,527459.0,0.0,0.0
11:17:16,527232.0,0.0,0.0
11:17:16,527503.0,0.0,0.0
11:17:16,527444.0,0.0,0.0
11:17:16,527386.0,0.0,0.0
11:17:16,527578.0,0.0,0.0
11:17:16,527328.0,0.0,0.0
11:17:16,527514.0,0.0,0.0
11:17:16,527437.0,0.0,0.0
11:17:16,527382.0,0.0,0.0
11:17:16,527606.0,0.0,0.0
11:17:16,527359.0,0.0,0.0
11:17:16,527598.0,0.0,0.0
11:17:16,527506.0,0.0,0.0
11:17:16,527441.0,0.0,0.0
11:17:16,527679.0,0.0,0.0
11:17:16,527404.0,0.0,0.0
11:17:16,527636.0,0.0,0.0
11:17:16,527605.0,0.0,0.0
11:17:16,527543.0,0.0,0.0
11:17:16,527753.0,0.0,0.0
11:17:16,527533.0,0.0,0.0
11:17:16,527756.0,0.0,0.0
11:17:16,527681.0,0.0,0.0
11:17:16,527508.0,0.0,0.0
11:17:16,527744.0,0.0,0.0
11:17:16,527469.0,0.0,0.0
11:17:16,527690.0,0.0,0.0
11:17:16,527621.0,0.0,0.0
11:17:16,527581.0,0.0,0.0
11:17:16,527778.0,0.0,0.0
11:17:16,527545.0,0.0,0.0
11:17:16,527727.0,0.0,0.0
11:17:16,527672.0,0.0,0.0
11:17:16,527611.0,0.0,0.0
11:17:16,527864.0,0.0,0.0
11:17:16,527598.0,0.0,0.0
11:17:16,527850.0,0.0,0.0
11:17:16,527796.0,0.0,0.0
11:17:16,527714.0,0.0,0.0
11:17:16,527986.0,0.0,0.0
11:17:16,527768.0,0.0,0.0
11:17:16,527843.0,0.0,0.0
11:17:16,527637.0,0.0,0.0
11:17:16,527588.0,0.0,0.0
11:17:16,527897.0,0.0,0.0
11:17:16,527786.0,0.0,0.0
11:17:16,528072.0,0.0,0.0
11:17:16,528079.0,0.0,0.0
11:17:16,527953.0,0.0,0.0
11:17:16,528186.0,0.0,0.0
11:17:16,527862.0,0.0,0.0
11:17:16,528027.0,0.0,0.0
11:17:16,527943.0,0.0,0.0
11:17:16,527849.0,0.0,0.0
11:17:16,528023.0,0.0,0.0
11:17:16,527781.0,0.0,0.0
11:17:16,528041.0,0.0,0.0
11:17:16,528031.0,0.0,0.0
11:17:16,527965.0,0.0,0.0
11:17:16,528223.0,0.0,0.0
11:17:16,527977.0,0.0,0.0
11:17:16,528229.0,0.0,0.0
11:17:16,528193.0,0.0,0.0
11:17:16,528136.0,0.0,0.0
11:17:16,528414.0,0.0,0.0
11:17:16,528140.0,0.0,0.0
11:17:16,528324.0,0.0,0.0
11:17:16,528267.0,0.0,0.0
11:17:16,528261.0,0.0,0.0
11:17:16,528416.0,0.0,0.0
11:17:16,528145.0,0.0,0.0
11:17:16,528334.0,0.0,0.0
11:17:16,528300.0,0.0,0.0
11:17:16,528209.0,0.0,0.0
11:17:16,528486.0,0.0,0.0
11:17:16,528213.0,0.0,0.0
11:17:16,528444.0,0.0,0.0
11:17:16,528399.0,0.0,0.0
11:17:16,528336.0,0.0,0.0
11:17:16,528609.0,0.0,0.0
11:17:16,528311.0,0.0,0.0
11:17:16,528463.0,0.0,0.0
11:17:16,528363.0,0.0,0.0
11:17:16,528275.0,0.0,0.0
11:17:16,528481.0,0.0,0.0
11:17:16,528199.0,0.0,0.0
11:17:16,528404.0,0.0,0.0
11:17:16,528324.0,0.0,0.0
11:17:16,528162.0,0.0,0.0
11:17:16,528384.0,0.0,0.0
11:17:16,528067.0,0.0,0.0
11:17:16,528223.0,0.0,0.0
11:17:16,528124.0,0.0,0.0
11:17:16,528095.0,0.0,0.0
11:17:16,528323.0,0.0,0.0
11:17:16,528059.0,0.0,0.0
11:17:16,528234.0,0.0,0.0
11:17:16,528226.0,0.0,0.0
11:17:17,528154.0,0.0,0.0
11:17:17,528378.0,0.0,0.0
11:17:17,528128.0,0.0,0.0
11:17:17,528359.0,0.0,0.0
11:17:17,528278.0,0.0,0.0
11:17:17,528189.0,0.0,0.0
11:17:17,528416.0,0.0,0.0
11:17:17,528205.0,0.0,0.0
11:17:17,528397.0,0.0,0.0
11:17:17,528374.0,0.0,0.0
11:17:17,528312.0,0.0,0.0
11:17:17,528563.0,0.0,0.0
11:17:17,528342.0,0.0,0.0
11:17:17,528578.0,0.0,0.0
11:17:17,528591.0,0.0,0.0
11:17:17,528573.0,0.0,0.0
11:17:17,528790.0,0.0,0.0
11:17:17,528588.0,0.0,0.0
11:17:17,528924.0,0.0,0.0
11:17:17,528890.0,0.0,0.0
11:17:17,528855.0,0.0,0.0
11:17:17,529111.0,0.0,0.0
11:17:17,528978.0,0.0,0.0
11:17:17,529226.0,0.0,0.0
11:17:17,529234.0,0.0,0.0
11:17:17,529070.0,0.0,0.0
11:17:17,529158.0,0.0,0.0
11:17:17,528961.0,0.0,0.0
11:17:17,529218.0,0.0,0.0
11:17:17,529264.0,0.0,0.0
11:17:17,529319.0,0.0,0.0
11:17:17,529531.0,0.0,0.0
11:17:17,529272.0,0.0,0.0
11:17:17,529476.0,0.0,0.0
11:17:17,529368.0,0.0,0.0
11:17:17,529206.0,0.0,0.0
11:17:17,529403.0,0.0,0.0
11:17:17,529186.0,0.0,0.0
11:17:17,529352.0,0.0,0.0
11:17:17,529302.0,0.0,0.0
11:17:17,529222.0,0.0,0.0
11:17:17,529437.0,0.0,0.0
11:17:17,529178.0,0.0,0.0
11:17:17,529443.0,0.0,0.0
11:17:17,529323.0,0.0,0.0
11:17:17,529302.0,0.0,0.0
11:17:17,529483.0,0.0,0.0
11:17:17,529273.0,0.0,0.0
11:17:17,529431.0,0.0,0.0
11:17:17,529414.0,0.0,0.0
11:17:17,529284.0,0.0,0.0
11:17:17,529538.0,0.0,0.0
11:17:17,529274.0,0.0,0.0
11:17:17,529496.0,0.0,0.0
11:17:17,529427.0,0.0,0.0
11:17:17,529368.0,0.0,0.0
11:17:17,529588.0,0.0,0.0
11:17:17,529319.0,0.0,0.0
11:17:17,529561.0,0.0,0.0
11:17:17,529506.0,0.0,0.0
11:17:17,529462.0,0.0,0.0
11:17:17,529651.0,0.0,0.0
11:17:17,529458.0,0.0,0.0
11:17:17,529668.0,0.0,0.0
11:17:17,529654.0,0.0,0.0
11:17:17,529539.0,0.0,0.0
11:17:17,529799.0,0.0,0.0
11:17:17,529549.0,0.0,0.0
11:17:17,529784.0,0.0,0.0
11:17:17,529745.0,0.0,0.0
11:17:17,529690.0,0.0,0.0
11:17:17,529978.0,0.0,0.0
11:17:17,529799.0,0.0,0.0
11:17:17,529969.0,0.0,0.0
11:17:17,529975.0,0.0,0.0
11:17:17,529888.0,0.0,0.0
11:17:17,530146.0,0.0,0.0
11:17:17,529831.0,0.0,0.0
11:17:17,530058.0,0.0,0.0
11:17:17,530003.0,0.0,0.0
11:17:17,529923.0,0.0,0.0
11:17:17,530129.0,0.0,0.0
11:17:17,529883.0,0.0,0.0
11:17:17,530095.0,0.0,0.0
11:17:17,530036.0,0.0,0.0
11:17:17,529973.0,0.0,0.0
11:17:17,530266.0,0.0,0.0
11:17:17,529993.0,0.0,0.0
11:17:17,530223.0,0.0,0.0
11:17:17,530168.0,0.0,0.0
11:17:17,530056.0,0.0,0.0
11:17:17,530288.0,0.0,0.0
11:17:17,530037.0,0.0,0.0
11:17:17,530240.0,0.0,0.0
11:17:17,530171.0,0.0,0.0
11:17:17,530082.0,0.0,0.0
11:17:17,530343.0,0.0,0.0
11:17:17,530070.0,0.0,0.0
11:17:17,530294.0,0.0,0.0
11:17:17,530238.0,0.0,0.0
11:17:17,530126.0,0.0,0.0
11:17:17,530403.0,0.0,0.0
11:17:17,530134.0,0.0,0.0
11:17:17,530383.0,0.0,0.0
11:17:17,530309.0,0.0,0.0
11:17:17,530251.0,0.0,0.0
11:17:17,530445.0,0.0,0.0
11:17:17,530018.0,0.0,0.0
11:17:17,530116.0,0.0,0.0
11:17:17,530128.0,0.0,0.0
11:17:17,530025.0,0.0,0.0
11:17:17,530304.0,0.0,0.0
11:17:17,530061.0,0.0,0.0
11:17:17,530294.0,0.0,0.0
11:17:17,530184.0,0.0,0.0
11:17:17,530010.0,0.0,0.0
11:17:17,530209.0,0.0,0.0
11:17:17,529926.0,0.0,0.0
11:17:17,530151.0,0.0,0.0
11:17:17,530018.0,0.0,0.0
11:17:17,529912.0,0.0,0.0
11:17:17,530134.0,0.0,0.0
11:17:17,529848.0,0.0,0.0
11:17:17,530056.0,0.0,0.0
11:17:17,529944.0,0.0,0.0
11:17:18,529720.0,0.0,0.0
11:17:18,529949.0,0.0,0.0
11:17:18,529613.0,0.0,0.0
11:17:18,529887.0,0.0,0.0
11:17:18,529729.0,0.0,0.0
11:17:18,529611.0,0.0,0.0
11:17:18,529894.0,0.0,0.0
11:17:18,529584.0,0.0,0.0
11:17:18,529756.0,0.0,0.0
11:17:18,529618.0,0.0,0.0
11:17:18,529486.0,0.0,0.0
11:17:18,529818.0,0.0,0.0
11:17:18,529398.0,0.0,0.0
11:17:18,529627.0,0.0,0.0
11:17:18,529524.0,0.0,0.0
11:17:18,529418.0,0.0,0.0
11:17:18,529689.0,0.0,0.0
11:17:18,529308.0,0.0,0.0
11:17:18,529605.0,0.0,0.0
11:17:18,529508.0,0.0,0.0
11:17:18,529401.0,0.0,0.0
11:17:18,529650.0,0.0,0.0
11:17:18,529312.0,0.0,0.0
11:17:18,529519.0,0.0,0.0
11:17:18,529513.0,0.0,0.0
11:17:18,529386.0,0.0,0.0
11:17:18,529629.0,0.0,0.0
11:17:18,529268.0,0.0,0.0
11:17:18,529481.0,0.0,0.0
11:17:18,529356.0,0.0,0.0
11:17:18,529298.0,0.0,0.0
11:17:18,529532.0,0.0,0.0
11:17:18,529305.0,0.0,0.0
11:17:18,529529.0,0.0,0.0
11:17:18,529474.0,0.0,0.0
11:17:18,529313.0,0.0,0.0
11:17:18,529488.0,0.0,0.0
11:17:18,529251.0,0.0,0.0
11:17:18,529469.0,0.0,0.0
11:17:18,529304.0,0.0,0.0
11:17:18,529221.0,0.0,0.0
11:17:18,529434.0,0.0,0.0
11:17:18,529142.0,0.0,0.0
11:17:18,529339.0,0.0,0.0
11:17:18,529196.0,0.0,0.0
11:17:18,529073.0,0.0,0.0
11:17:18,529249.0,0.0,0.0
11:17:18,529030.0,0.0,0.0
11:17:18,529256.0,0.0,0.0
11:17:18,529114.0,0.0,0.0
11:17:18,528998.0,0.0,0.0
11:17:18,529300.0,0.0,0.0
11:17:18,529023.0,0.0,0.0
11:17:18,529296.0,0.0,0.0
11:17:18,529187.0,0.0,0.0
11:17:18,529170.0,0.0,0.0
11:17:18,529384.0,0.0,0.0
11:17:18,529155.0,0.0,0.0
11:17:18,529403.0,0.0,0.0
11:17:18,529321.0,0.0,0.0
11:17:18,529145.0,0.0,0.0
11:17:18,529268.0,0.0,0.0
11:17:18,528953.0,0.0,0.0
11:17:18,529215.0,0.0,0.0
11:17:18,529174.0,0.0,0.0
11:17:18,529149.0,0.0,0.0
11:17:18,529418.0,0.0,0.0
11:17:18,529203.0,0.0,0.0
11:17:18,529433.0,0.0,0.0
11:17:18,529009.0,0.0,0.0
11:17:18,528919.0,0.0,0.0
11:17:18,529194.0,0.0,0.0
11:17:18,528896.0,0.0,0.0
11:17:18,529121.0,0.0,0.0
11:17:18,529153.0,0.0,0.0
11:17:18,529032.0,0.0,0.0
11:17:18,529409.0,0.0,0.0
11:17:18,529039.0,0.0,0.0
11:17:18,529468.0,0.0,0.0
11:17:18,529319.0,0.0,0.0
11:17:18,529181.0,0.0,0.0
11:17:18,529456.0,0.0,0.0
11:17:18,529044.0,0.0,0.0
11:17:18,529244.0,0.0,0.0
11:17:18,529136.0,0.0,0.0
11:17:18,529024.0,0.0,0.0
11:17:18,529341.0,0.0,0.0
11:17:18,528938.0,0.0,0.0
11:17:18,529216.0,0.0,0.0
11:17:18,529178.0,0.0,0.0
11:17:18,529048.0,0.0,0.0
11:17:18,529275.0,0.0,0.0
11:17:18,528803.0,0.0,0.0
11:17:18,528984.0,0.0,0.0
11:17:18,528864.0,0.0,0.0
11:17:18,528744.0,0.0,0.0
11:17:18,529004.0,0.0,0.0
11:17:18,528774.0,0.0,0.0
11:17:18,529060.0,0.0,0.0
11:17:18,529081.0,0.0,0.0
11:17:18,529026.0,0.0,0.0
11:17:18,529269.0,0.0,0.0
11:17:18,529064.0,0.0,0.0
11:17:18,529393.0,0.0,0.0
11:17:18,529313.0,0.0,0.0
11:17:18,529303.0,0.0,0.0
11:17:18,529566.0,0.0,0.0
11:17:18,529393.0,0.0,0.0
11:17:18,529584.0,0.0,0.0
11:17:18,529560.0,0.0,0.0
11:17:18,529498.0,0.0,0.0
11:17:18,529690.0,0.0,0.0
11:17:18,529373.0,0.0,0.0
11:17:18,529544.0,0.0,0.0
11:17:18,529471.0,0.0,0.0
11:17:18,529325.0,0.0,0.0
11:17:18,529508.0,0.0,0.0
11:17:18,529229.0,0.0,0.0
11:17:18,529503.0,0.0,0.0
11:17:18,529438.0,0.0,0.0
11:17:18,529394.0,0.0,0.0
11:17:18,529536.0,0.0,0.0
11:17:18,529320.0,0.0,0.0
11:17:18,529535.0,0.0,0.0
11:17:18,529404.0,0.0,0.0
11:17:19,529317.0,0.0,0.0
11:17:19,529516.0,0.0,0.0
11:17:19,529299.0,0.0,0.0
11:17:19,529523.0,0.0,0.0
11:17:19,529313.0,0.0,0.0
11:17:19,529333.0,0.0,0.0
11:17:19,529619.0,0.0,0.0
11:17:19,529338.0,0.0,0.0
11:17:19,529529.0,0.0,0.0
11:17:19,529404.0,0.0,0.0
11:17:19,529363.0,0.0,0.0
11:17:19,529569.0,0.0,0.0
11:17:19,529261.0,0.0,0.0
11:17:19,529380.0,0.0,0.0
11:17:19,529176.0,0.0,0.0
11:17:19,529178.0,0.0,0.0
11:17:19,529504.0,0.0,0.0
11:17:19,529291.0,0.0,0.0
11:17:19,529585.0,0.0,0.0
11:17:19,529467.0,0.0,0.0
11:17:19,529314.0,0.0,0.0
11:17:19,529367.0,0.0,0.0
11:17:19,529086.0,0.0,0.0
11:17:19,529369.0,0.0,0.0
11:17:19,529273.0,0.0,0.0
11:17:19,529183.0,0.0,0.0
11:17:19,529354.0,0.0,0.0
11:17:19,529008.0,0.0,0.0
11:17:19,529314.0,0.0,0.0
11:17:19,529101.0,0.0,0.0
11:17:19,529025.0,0.0,0.0
11:17:19,529208.0,0.0,0.0
11:17:19,528890.0,0.0,0.0
11:17:19,529139.0,0.0,0.0
11:17:19,529011.0,0.0,0.0
11:17:19,528926.0,0.0,0.0
11:17:19,529078.0,0.0,0.0
11:17:19,528603.0,0.0,0.0
11:17:19,528794.0,0.0,0.0
11:17:19,528581.0,0.0,0.0
11:17:19,528503.0,0.0,0.0
11:17:19,528891.0,0.0,0.0
11:17:19,528459.0,0.0,0.0
11:17:19,528761.0,0.0,0.0
11:17:19,528678.0,0.0,0.0
11:17:19,528590.0,0.0,0.0
11:17:19,528860.0,0.0,0.0
11:17:19,528516.0,0.0,0.0
11:17:19,528828.0,0.0,0.0
11:17:19,528689.0,0.0,0.0
11:17:19,528479.0,0.0,0.0
11:17:19,528873.0,0.0,0.0
11:17:19,528345.0,0.0,0.0
11:17:19,528671.0,0.0,0.0
11:17:19,528611.0,0.0,0.0
11:17:19,528484.0,0.0,0.0
11:17:19,528883.0,0.0,0.0
11:17:19,528378.0,0.0,0.0
11:17:19,528657.0,0.0,0.0
11:17:19,528561.0,0.0,0.0
11:17:19,528286.0,0.0,0.0
11:17:19,528563.0,0.0,0.0
11:17:19,528143.0,0.0,0.0
11:17:19,528463.0,0.0,0.0
11:17:19,528350.0,0.0,0.0
11:17:19,528096.0,0.0,0.0
11:17:19,528509.0,0.0,0.0
11:17:19,528084.0,0.0,0.0
11:17:19,528410.0,0.0,0.0
11:17:19,528262.0,0.0,0.0
11:17:19,528166.0,0.0,0.0
11:17:19,528508.0,0.0,0.0
11:17:19,528126.0,0.0,0.0
11:17:19,528424.0,0.0,0.0
11:17:19,528294.0,0.0,0.0
11:17:19,528121.0,0.0,0.0
11:17:19,528525.0,0.0,0.0
11:17:19,528108.0,0.0,0.0
11:17:19,528441.0,0.0,0.0
11:17:19,528368.0,0.0,0.0
11:17:19,528286.0,0.0,0.0
11:17:19,528666.0,0.0,0.0
11:17:19,528357.0,0.0,0.0
11:17:19,528604.0,0.0,0.0
11:17:19,528478.0,0.0,0.0
11:17:19,528430.0,0.0,0.0
11:17:19,528898.0,0.0,0.0
11:17:19,528549.0,0.0,0.0
11:17:19,528717.0,0.0,0.0
11:17:19,528528.0,0.0,0.0
11:17:19,528501.0,0.0,0.0
11:17:19,528793.0,0.0,0.0
11:17:19,528472.0,0.0,0.0
11:17:19,528858.0,0.0,0.0
11:17:19,528594.0,0.0,0.0
11:17:19,528286.0,0.0,0.0
11:17:19,528471.0,0.0,0.0
11:17:19,528171.0,0.0,0.0
11:17:19,528404.0,0.0,0.0
11:17:19,528265.0,0.0,0.0
11:17:19,528098.0,0.0,0.0
11:17:19,528419.0,0.0,0.0
11:17:19,527937.0,0.0,0.0
11:17:19,528194.0,0.0,0.0
11:17:19,527927.0,0.0,0.0
11:17:19,527833.0,0.0,0.0
11:17:19,528237.0,0.0,0.0
11:17:19,527920.0,0.0,0.0
11:17:19,528383.0,0.0,0.0
11:17:19,528361.0,0.0,0.0
11:17:19,528178.0,0.0,0.0
11:17:19,528667.0,0.0,0.0
11:17:19,528319.0,0.0,0.0
11:17:19,528733.0,0.0,0.0
11:17:19,528687.0,0.0,0.0
11:17:19,528491.0,0.0,0.0
11:17:19,528853.0,0.0,0.0
11:17:19,528374.0,0.0,0.0
11:17:19,528756.0,0.0,0.0
11:17:19,528663.0,0.0,0.0
11:17:19,528493.0,0.0,0.0
11:17:19,528826.0,0.0,0.0
11:17:19,528399.0,0.0,0.0
11:17:19,528792.0,0.0,0.0
11:17:19,528753.0,0.0,0.0
11:17:20,528464.0,0.0,0.0
11:17:20,528789.0,0.0,0.0
11:17:20,528351.0,0.0,0.0
11:17:20,528634.0,0.0,0.0
11:17:20,528360.0,0.0,0.0
11:17:20,528204.0,0.0,0.0
11:17:20,528563.0,0.0,0.0
11:17:20,528192.0,0.0,0.0
11:17:20,528501.0,0.0,0.0
11:17:20,528445.0,0.0,0.0
11:17:20,528373.0,0.0,0.0
11:17:20,528760.0,0.0,0.0
11:17:20,528351.0,0.0,0.0
11:17:20,528678.0,0.0,0.0
11:17:20,528604.0,0.0,0.0
11:17:20,528409.0,0.0,0.0
11:17:20,528806.0,0.0,0.0
11:17:20,528268.0,0.0,0.0
11:17:20,528686.0,0.0,0.0
11:17:20,528441.0,0.0,0.0
11:17:20,528231.0,0.0,0.0
11:17:20,528473.0,0.0,0.0
11:17:20,528054.0,0.0,0.0
11:17:20,528355.0,0.0,0.0
11:17:20,528343.0,0.0,0.0
11:17:20,528133.0,0.0,0.0
11:17:20,528556.0,0.0,0.0
11:17:20,528140.0,0.0,0.0
11:17:20,528478.0,0.0,0.0
11:17:20,528268.0,0.0,0.0
11:17:20,528121.0,0.0,0.0
11:17:20,528304.0,0.0,0.0
11:17:20,527759.0,0.0,0.0
11:17:20,528212.0,0.0,0.0
11:17:20,528148.0,0.0,0.0
11:17:20,528117.0,0.0,0.0
11:17:20,528401.0,0.0,0.0
11:17:20,528119.0,0.0,0.0
11:17:20,528497.0,0.0,0.0
11:17:20,528521.0,0.0,0.0
11:17:20,528437.0,0.0,0.0
11:17:20,528907.0,0.0,0.0
11:17:20,528424.0,0.0,0.0
11:17:20,529006.0,0.0,0.0
11:17:20,528999.0,0.0,0.0
11:17:20,529192.0,0.0,0.0
11:17:20,529637.0,0.0,0.0
11:17:20,529403.0,0.0,0.0
11:17:20,529750.0,0.0,0.0
11:17:20,529669.0,0.0,0.0
11:17:20,529504.0,0.0,0.0
11:17:20,529831.0,0.0,0.0
11:17:20,529423.0,0.0,0.0
11:17:20,529717.0,0.0,0.0
11:17:20,529419.0,0.0,0.0
11:17:20,529271.0,0.0,0.0
11:17:20,529374.0,0.0,0.0
11:17:20,528878.0,0.0,0.0
11:17:20,529109.0,0.0,0.0
11:17:20,528819.0,0.0,0.0
11:17:20,528640.0,0.0,0.0
11:17:20,528732.0,0.0,0.0
11:17:20,528386.0,0.0,0.0
11:17:20,528618.0,0.0,0.0
11:17:20,528464.0,0.0,0.0
11:17:20,528298.0,0.0,0.0
11:17:20,528681.0,0.0,0.0
11:17:20,528284.0,0.0,0.0
11:17:20,528816.0,0.0,0.0
11:17:20,528641.0,0.0,0.0
11:17:20,528378.0,0.0,0.0
11:17:20,528512.0,0.0,0.0
11:17:20,528329.0,0.0,0.0
11:17:20,528660.0,0.0,0.0
11:17:20,528628.0,0.0,0.0
11:17:20,528604.0,0.0,0.0
11:17:20,528987.0,0.0,0.0
11:17:20,528684.0,0.0,0.0
11:17:20,528994.0,0.0,0.0
11:17:20,528791.0,0.0,0.0
11:17:20,528673.0,0.0,0.0
11:17:20,529021.0,0.0,0.0
11:17:20,528813.0,0.0,0.0
11:17:20,529109.0,0.0,0.0
11:17:20,528886.0,0.0,0.0
11:17:20,528889.0,0.0,0.0
11:17:20,529123.0,0.0,0.0
11:17:20,528846.0,0.0,0.0
11:17:20,528962.0,0.0,0.0
11:17:20,528779.0,0.0,0.0
11:17:20,528617.0,0.0,0.0
11:17:20,528906.0,0.0,0.0
11:17:20,528578.0,0.0,0.0
11:17:20,528860.0,0.0,0.0
11:17:20,528693.0,0.0,0.0
11:17:20,528740.0,0.0,0.0
11:17:20,528926.0,0.0,0.0
11:17:20,528629.0,0.0,0.0
11:17:20,528870.0,0.0,0.0
11:17:20,528795.0,0.0,0.0
11:17:20,528759.0,0.0,0.0
11:17:20,529003.0,0.0,0.0
11:17:20,528463.0,0.0,0.0
11:17:20,528813.0,0.0,0.0
11:17:20,528634.0,0.0,0.0
11:17:20,528452.0,0.0,0.0
11:17:20,528766.0,0.0,0.0
11:17:20,528290.0,0.0,0.0
11:17:20,528619.0,0.0,0.0
11:17:20,528449.0,0.0,0.0
11:17:20,528420.0,0.0,0.0
11:17:20,528718.0,0.0,0.0
11:17:20,528404.0,0.0,0.0
11:17:20,528655.0,0.0,0.0
11:17:20,528664.0,0.0,0.0
11:17:20,528352.0,0.0,0.0
11:17:20,528641.0,0.0,0.0
11:17:20,528171.0,0.0,0.0
11:17:20,528619.0,0.0,0.0
11:17:20,528463.0,0.0,0.0
11:17:20,528287.0,0.0,0.0
11:17:20,528297.0,0.0,0.0
11:17:20,528051.0,0.0,0.0
11:17:20,528396.0,0.0,0.0
11:17:20,528405.0,0.0,0.0
11:17:20,528319.0,0.0,0.0
11:17:21,528771.0,0.0,0.0
11:17:21,528371.0,0.0,0.0
11:17:21,528689.0,0.0,0.0
11:17:21,528496.0,0.0,0.0
11:17:21,528309.0,0.0,0.0
11:17:21,528621.0,0.0,0.0
11:17:21,528165.0,0.0,0.0
11:17:21,528428.0,0.0,0.0
11:17:21,528269.0,0.0,0.0
11:17:21,528231.0,0.0,0.0
11:17:21,528499.0,0.0,0.0
11:17:21,528135.0,0.0,0.0
11:17:21,528413.0,0.0,0.0
11:17:21,528335.0,0.0,0.0
11:17:21,528200.0,0.0,0.0
11:17:21,528639.0,0.0,0.0
11:17:21,528021.0,0.0,0.0
11:17:21,528378.0,0.0,0.0
11:17:21,528223.0,0.0,0.0
11:17:21,528166.0,0.0,0.0
11:17:21,528444.0,0.0,0.0
11:17:21,528050.0,0.0,0.0
11:17:21,528266.0,0.0,0.0
11:17:21,528158.0,0.0,0.0
11:17:21,527941.0,0.0,0.0
11:17:21,528319.0,0.0,0.0
11:17:21,527859.0,0.0,0.0
11:17:21,528291.0,0.0,0.0
11:17:21,528159.0,0.0,0.0
11:17:21,528001.0,0.0,0.0
11:17:21,528353.0,0.0,0.0
11:17:21,527905.0,0.0,0.0
11:17:21,528234.0,0.0,0.0
11:17:21,528078.0,0.0,0.0
11:17:21,527940.0,0.0,0.0
11:17:21,528248.0,0.0,0.0
11:17:21,527866.0,0.0,0.0
11:17:21,528126.0,0.0,0.0
11:17:21,528088.0,0.0,0.0
11:17:21,527941.0,0.0,0.0
11:17:21,528386.0,0.0,0.0
11:17:21,527876.0,0.0,0.0
11:17:21,528310.0,0.0,0.0
11:17:21,528204.0,0.0,0.0
11:17:21,528123.0,0.0,0.0
11:17:21,528401.0,0.0,0.0
11:17:21,527983.0,0.0,0.0
11:17:21,528218.0,0.0,0.0
11:17:21,528171.0,0.0,0.0
11:17:21,527926.0,0.0,0.0
11:17:21,528276.0,0.0,0.0
11:17:21,527863.0,0.0,0.0
11:17:21,528239.0,0.0,0.0
11:17:21,528120.0,0.0,0.0
11:17:21,528013.0,0.0,0.0
11:17:21,528386.0,0.0,0.0
11:17:21,527925.0,0.0,0.0
11:17:21,528304.0,0.0,0.0
11:17:21,528139.0,0.0,0.0
11:17:21,527981.0,0.0,0.0
11:17:21,528264.0,0.0,0.0
11:17:21,527844.0,0.0,0.0
11:17:21,528096.0,0.0,0.0
11:17:21,528016.0,0.0,0.0
11:17:21,527770.0,0.0,0.0
11:17:21,528246.0,0.0,0.0
11:17:21,527758.0,0.0,0.0
11:17:21,528218.0,0.0,0.0
11:17:21,528011.0,0.0,0.0
11:17:21,527959.0,0.0,0.0
11:17:21,528268.0,0.0,0.0
11:17:21,527909.0,0.0,0.0
11:17:21,528151.0,0.0,0.0
11:17:21,528054.0,0.0,0.0
11:17:21,527868.0,0.0,0.0
11:17:21,528211.0,0.0,0.0
11:17:21,527749.0,0.0,0.0
11:17:21,528113.0,0.0,0.0
11:17:21,527978.0,0.0,0.0
11:17:21,527886.0,0.0,0.0
11:17:21,528268.0,0.0,0.0
11:17:21,527853.0,0.0,0.0
11:17:21,528123.0,0.0,0.0
11:17:21,527764.0,0.0,0.0
11:17:21,527693.0,0.0,0.0
11:17:21,528071.0,0.0,0.0
11:17:21,527819.0,0.0,0.0
11:17:21,528171.0,0.0,0.0
11:17:21,528040.0,0.0,0.0
11:17:21,527734.0,0.0,0.0
11:17:21,528143.0,0.0,0.0
11:17:21,527623.0,0.0,0.0
11:17:21,527983.0,0.0,0.0
11:17:21,527763.0,0.0,0.0
11:17:21,527693.0,0.0,0.0
11:17:21,527971.0,0.0,0.0
11:17:21,527584.0,0.0,0.0
11:17:21,527883.0,0.0,0.0
11:17:21,527777.0,0.0,0.0
11:17:21,527498.0,0.0,0.0
11:17:21,527867.0,0.0,0.0
11:17:21,527359.0,0.0,0.0
11:17:21,527668.0,0.0,0.0
11:17:21,527495.0,0.0,0.0
11:17:21,527389.0,0.0,0.0
11:17:21,527721.0,0.0,0.0
11:17:21,527193.0,0.0,0.0
11:17:21,527579.0,0.0,0.0
11:17:21,527442.0,0.0,0.0
11:17:21,527363.0,0.0,0.0
11:17:21,527604.0,0.0,0.0
11:17:21,527232.0,0.0,0.0
11:17:21,527496.0,0.0,0.0
11:17:21,527419.0,0.0,0.0
11:17:21,527143.0,0.0,0.0
11:17:21,527539.0,0.0,0.0
11:17:21,527005.0,0.0,0.0
11:17:21,527393.0,0.0,0.0
11:17:21,527188.0,0.0,0.0
11:17:21,527149.0,0.0,0.0
11:17:21,527441.0,0.0,0.0
11:17:21,527037.0,0.0,0.0
11:17:21,527368.0,0.0,0.0
11:17:21,527360.0,0.0,0.0
11:17:21,527137.0,0.0,0.0
11:17:22,527519.0,0.0,0.0
11:17:22,527102.0,0.0,0.0
11:17:22,527446.0,0.0,0.0
11:17:22,527257.0,0.0,0.0
11:17:22,527155.0,0.0,0.0
11:17:22,527584.0,0.0,0.0
11:17:22,527132.0,0.0,0.0
11:17:22,527452.0,0.0,0.0
11:17:22,527307.0,0.0,0.0
11:17:22,527243.0,0.0,0.0
11:17:22,527583.0,0.0,0.0
11:17:22,527219.0,0.0,0.0
11:17:22,527526.0,0.0,0.0
11:17:22,527438.0,0.0,0.0
11:17:22,527234.0,0.0,0.0
11:17:22,527627.0,0.0,0.0
11:17:22,527097.0,0.0,0.0
11:17:22,527524.0,0.0,0.0
11:17:22,527303.0,0.0,0.0
11:17:22,527221.0,0.0,0.0
11:17:22,527551.0,0.0,0.0
11:17:22,527161.0,0.0,0.0
11:17:22,527444.0,0.0,0.0
11:17:22,527416.0,0.0,0.0
11:17:22,527257.0,0.0,0.0
11:17:22,527674.0,0.0,0.0
11:17:22,527249.0,0.0,0.0
11:17:22,527566.0,0.0,0.0
11:17:22,527370.0,0.0,0.0
11:17:22,527246.0,0.0,0.0
11:17:22,527658.0,0.0,0.0
11:17:22,527188.0,0.0,0.0
11:17:22,527549.0,0.0,0.0
11:17:22,527372.0,0.0,0.0
11:17:22,527280.0,0.0,0.0
11:17:22,527558.0,0.0,0.0
11:17:22,527153.0,0.0,0.0
11:17:22,527455.0,0.0,0.0
11:17:22,527455.0,0.0,0.0
11:17:22,527294.0,0.0,0.0
11:17:22,527646.0,0.0,0.0
11:17:22,527144.0,0.0,0.0
11:17:22,527617.0,0.0,0.0
11:17:22,527456.0,0.0,0.0
11:17:22,527241.0,0.0,0.0
11:17:22,527324.0,0.0,0.0
11:17:22,526974.0,0.0,0.0
11:17:22,527266.0,0.0,0.0
11:17:22,527294.0,0.0,0.0
11:17:22,527190.0,0.0,0.0
11:17:22,527591.0,0.0,0.0
11:17:22,527131.0,0.0,0.0
11:17:22,527479.0,0.0,0.0
11:17:22,527325.0,0.0,0.0
11:17:22,527171.0,0.0,0.0
11:17:22,527483.0,0.0,0.0
11:17:22,527006.0,0.0,0.0
11:17:22,527396.0,0.0,0.0
11:17:22,527176.0,0.0,0.0
11:17:22,527061.0,0.0,0.0
11:17:22,527409.0,0.0,0.0
11:17:22,527026.0,0.0,0.0
11:17:22,527276.0,0.0,0.0
11:17:22,527167.0,0.0,0.0
11:17:22,526989.0,0.0,0.0
11:17:22,527368.0,0.0,0.0
11:17:22,526881.0,0.0,0.0
11:17:22,527391.0,0.0,0.0
11:17:22,527157.0,0.0,0.0
11:17:22,527039.0,0.0,0.0
11:17:22,527309.0,0.0,0.0
11:17:22,526962.0,0.0,0.0
11:17:22,527244.0,0.0,0.0
11:17:22,527119.0,0.0,0.0
11:17:22,526916.0,0.0,0.0
11:17:22,527304.0,0.0,0.0
11:17:22,526858.0,0.0,0.0
11:17:22,527259.0,0.0,0.0
11:17:22,527102.0,0.0,0.0
11:17:22,526999.0,0.0,0.0
11:17:22,527371.0,0.0,0.0
11:17:22,526905.0,0.0,0.0
11:17:22,527371.0,0.0,0.0
11:17:22,527186.0,0.0,0.0
11:17:22,527057.0,0.0,0.0
11:17:22,527394.0,0.0,0.0
11:17:22,527047.0,0.0,0.0
11:17:22,527269.0,0.0,0.0
11:17:22,527209.0,0.0,0.0
11:17:22,527009.0,0.0,0.0
11:17:22,527509.0,0.0,0.0
11:17:22,527019.0,0.0,0.0
11:17:22,527454.0,0.0,0.0
11:17:22,527268.0,0.0,0.0
11:17:22,527162.0,0.0,0.0
11:17:22,527427.0,0.0,0.0
11:17:22,527073.0,0.0,0.0
11:17:22,527329.0,0.0,0.0
11:17:22,527206.0,0.0,0.0
11:17:22,527074.0,0.0,0.0
11:17:22,527438.0,0.0,0.0
11:17:22,526998.0,0.0,0.0
11:17:22,527365.0,0.0,0.0
11:17:22,527227.0,0.0,0.0
11:17:22,527023.0,0.0,0.0
11:17:22,527408.0,0.0,0.0
11:17:22,526993.0,0.0,0.0
11:17:22,527389.0,0.0,0.0
11:17:22,527203.0,0.0,0.0
11:17:22,527158.0,0.0,0.0
11:17:22,527464.0,0.0,0.0
11:17:22,527079.0,0.0,0.0
11:17:22,527339.0,0.0,0.0
11:17:22,527284.0,0.0,0.0
11:17:22,527128.0,0.0,0.0
11:17:22,527556.0,0.0,0.0
11:17:22,527063.0,0.0,0.0
11:17:22,527536.0,0.0,0.0
11:17:22,527276.0,0.0,0.0
11:17:22,527331.0,0.0,0.0
11:17:22,527593.0,0.0,0.0
11:17:22,527245.0,0.0,0.0
11:17:22,527508.0,0.0,0.0
11:17:22,527497.0,0.0,0.0
11:17:23,527294.0,0.0,0.0
11:17:23,527733.0,0.0,0.0
11:17:23,527171.0,0.0,0.0
11:17:23,527522.0,0.0,0.0
11:17:23,527359.0,0.0,0.0
11:17:23,527298.0,0.0,0.0
11:17:23,527666.0,0.0,0.0
11:17:23,527212.0,0.0,0.0
11:17:23,527750.0,0.0,0.0
11:17:23,527617.0,0.0,0.0
11:17:23,527522.0,0.0,0.0
11:17:23,527644.0,0.0,0.0
11:17:23,527114.0,0.0,0.0
11:17:23,527367.0,0.0,0.0
11:17:23,527369.0,0.0,0.0
11:17:23,527312.0,0.0,0.0
11:17:23,527808.0,0.0,0.0
11:17:23,527269.0,0.0,0.0
11:17:23,527729.0,0.0,0.0
11:17:23,527446.0,0.0,0.0
11:17:23,527396.0,0.0,0.0
11:17:23,527618.0,0.0,0.0
11:17:23,527318.0,0.0,0.0
11:17:23,527597.0,0.0,0.0
11:17:23,527480.0,0.0,0.0
11:17:23,527222.0,0.0,0.0
11:17:23,527636.0,0.0,0.0
11:17:23,527081.0,0.0,0.0
11:17:23,527399.0,0.0,0.0
11:17:23,527180.0,0.0,0.0
11:17:23,527035.0,0.0,0.0
11:17:23,527361.0,0.0,0.0
11:17:23,526934.0,0.0,0.0
11:17:23,527323.0,0.0,0.0
11:17:23,527103.0,0.0,0.0
11:17:23,527085.0,0.0,0.0
11:17:23,527406.0,0.0,0.0
11:17:23,527024.0,0.0,0.0
11:17:23,527263.0,0.0,0.0
11:17:23,527198.0,0.0,0.0
11:17:23,526976.0,0.0,0.0
11:17:23,527360.0,0.0,0.0
11:17:23,526736.0,0.0,0.0
11:17:23,527260.0,0.0,0.0
11:17:23,527048.0,0.0,0.0
11:17:23,526993.0,0.0,0.0
11:17:23,527199.0,0.0,0.0
11:17:23,526876.0,0.0,0.0
11:17:23,527216.0,0.0,0.0
11:17:23,527186.0,0.0,0.0
11:17:23,527003.0,0.0,0.0
11:17:23,527412.0,0.0,0.0
11:17:23,526871.0,0.0,0.0
11:17:23,527226.0,0.0,0.0
11:17:23,527073.0,0.0,0.0
11:17:23,527015.0,0.0,0.0
11:17:23,527334.0,0.0,0.0
11:17:23,526874.0,0.0,0.0
11:17:23,527254.0,0.0,0.0
11:17:23,527092.0,0.0,0.0
11:17:23,527034.0,0.0,0.0
11:17:23,527310.0,0.0,0.0
11:17:23,526922.0,0.0,0.0
11:17:23,527228.0,0.0,0.0
11:17:23,527180.0,0.0,0.0
11:17:23,526922.0,0.0,0.0
11:17:23,527401.0,0.0,0.0
11:17:23,526786.0,0.0,0.0
11:17:23,527260.0,0.0,0.0
11:17:23,526996.0,0.0,0.0
11:17:23,526909.0,0.0,0.0
11:17:23,527078.0,0.0,0.0
11:17:23,526745.0,0.0,0.0
11:17:23,527056.0,0.0,0.0
11:17:23,526942.0,0.0,0.0
11:17:23,526759.0,0.0,0.0
11:17:23,527211.0,0.0,0.0
11:17:23,526674.0,0.0,0.0
11:17:23,527066.0,0.0,0.0
11:17:23,526886.0,0.0,0.0
11:17:23,526754.0,0.0,0.0
11:17:23,527125.0,0.0,0.0
11:17:23,526626.0,0.0,0.0
11:17:23,526974.0,0.0,0.0
11:17:23,526751.0,0.0,0.0
11:17:23,526719.0,0.0,0.0
11:17:23,526996.0,0.0,0.0
11:17:23,526550.0,0.0,0.0
11:17:23,526844.0,0.0,0.0
11:17:23,526874.0,0.0,0.0
11:17:23,526712.0,0.0,0.0
11:17:23,527093.0,0.0,0.0
11:17:23,526540.0,0.0,0.0
11:17:23,527049.0,0.0,0.0
11:17:23,526781.0,0.0,0.0
11:17:23,526788.0,0.0,0.0
11:17:23,526938.0,0.0,0.0
11:17:23,526405.0,0.0,0.0
11:17:23,526567.0,0.0,0.0
11:17:23,526566.0,0.0,0.0
11:17:23,526563.0,0.0,0.0
11:17:23,527153.0,0.0,0.0
11:17:23,526729.0,0.0,0.0
11:17:23,527195.0,0.0,0.0
11:17:23,527059.0,0.0,0.0
11:17:23,527038.0,0.0,0.0
11:17:23,527349.0,0.0,0.0
11:17:23,526945.0,0.0,0.0
11:17:23,527381.0,0.0,0.0
11:17:23,527169.0,0.0,0.0
11:17:23,527169.0,0.0,0.0
11:17:23,527451.0,0.0,0.0
11:17:23,527040.0,0.0,0.0
11:17:23,527302.0,0.0,0.0
11:17:23,527219.0,0.0,0.0
11:17:23,527047.0,0.0,0.0
11:17:23,527414.0,0.0,0.0
11:17:23,526820.0,0.0,0.0
11:17:23,527308.0,0.0,0.0
11:17:23,527064.0,0.0,0.0
11:17:23,527067.0,0.0,0.0
11:17:23,527247.0,0.0,0.0
11:17:23,526906.0,0.0,0.0
11:17:23,527189.0,0.0,0.0
11:17:23,527015.0,0.0,0.0
11:17:24,526797.0,0.0,0.0
11:17:24,527165.0,0.0,0.0
11:17:24,526675.0,0.0,0.0
11:17:24,527043.0,0.0,0.0
11:17:24,526846.0,0.0,0.0
11:17:24,526726.0,0.0,0.0
11:17:24,527071.0,0.0,0.0
11:17:24,526678.0,0.0,0.0
11:17:24,527126.0,0.0,0.0
11:17:24,526929.0,0.0,0.0
11:17:24,526801.0,0.0,0.0
11:17:24,527041.0,0.0,0.0
11:17:24,526713.0,0.0,0.0
11:17:24,527006.0,0.0,0.0
11:17:24,526908.0,0.0,0.0
11:17:24,526706.0,0.0,0.0
11:17:24,527140.0,0.0,0.0
11:17:24,526572.0,0.0,0.0
11:17:24,527010.0,0.0,0.0
11:17:24,526728.0,0.0,0.0
11:17:24,526751.0,0.0,0.0
11:17:24,527082.0,0.0,0.0
11:17:24,526700.0,0.0,0.0
11:17:24,526928.0,0.0,0.0
11:17:24,526808.0,0.0,0.0
11:17:24,526582.0,0.0,0.0
11:17:24,526954.0,0.0,0.0
11:17:24,526464.0,0.0,0.0
11:17:24,526834.0,0.0,0.0
11:17:24,526600.0,0.0,0.0
11:17:24,526515.0,0.0,0.0
11:17:24,526904.0,0.0,0.0
11:17:24,526533.0,0.0,0.0
11:17:24,526929.0,0.0,0.0
11:17:24,526631.0,0.0,0.0
11:17:24,526630.0,0.0,0.0
11:17:24,526884.0,0.0,0.0
11:17:24,526470.0,0.0,0.0
11:17:24,526781.0,0.0,0.0
11:17:24,526691.0,0.0,0.0
11:17:24,526469.0,0.0,0.0
11:17:24,526805.0,0.0,0.0
11:17:24,526266.0,0.0,0.0
11:17:24,526811.0,0.0,0.0
11:17:24,526541.0,0.0,0.0
11:17:24,526578.0,0.0,0.0
11:17:24,526841.0,0.0,0.0
11:17:24,526469.0,0.0,0.0
11:17:24,526738.0,0.0,0.0
11:17:24,526669.0,0.0,0.0
11:17:24,526543.0,0.0,0.0
11:17:24,526931.0,0.0,0.0
11:17:24,526401.0,0.0,0.0
11:17:24,526833.0,0.0,0.0
11:17:24,526675.0,0.0,0.0
11:17:24,526458.0,0.0,0.0
11:17:24,526574.0,0.0,0.0
11:17:24,526133.0,0.0,0.0
11:17:24,526684.0,0.0,0.0
11:17:24,526682.0,0.0,0.0
11:17:24,526749.0,0.0,0.0
11:17:24,527016.0,0.0,0.0
11:17:24,526611.0,0.0,0.0
11:17:24,526817.0,0.0,0.0
11:17:24,526698.0,0.0,0.0
11:17:24,526514.0,0.0,0.0
11:17:24,526907.0,0.0,0.0
11:17:24,526359.0,0.0,0.0
11:17:24,526845.0,0.0,0.0
11:17:24,526564.0,0.0,0.0
11:17:24,526593.0,0.0,0.0
11:17:24,526792.0,0.0,0.0
11:17:24,526407.0,0.0,0.0
11:17:24,526703.0,0.0,0.0
11:17:24,526616.0,0.0,0.0
11:17:24,526458.0,0.0,0.0
11:17:24,526862.0,0.0,0.0
11:17:24,526336.0,0.0,0.0
11:17:24,526693.0,0.0,0.0
11:17:24,526483.0,0.0,0.0
11:17:24,526361.0,0.0,0.0
11:17:24,526629.0,0.0,0.0
11:17:24,526149.0,0.0,0.0
11:17:24,526580.0,0.0,0.0
11:17:24,526339.0,0.0,0.0
11:17:24,526304.0,0.0,0.0
11:17:24,526587.0,0.0,0.0
11:17:24,526208.0,0.0,0.0
11:17:24,526585.0,0.0,0.0
11:17:24,526501.0,0.0,0.0
11:17:24,526333.0,0.0,0.0
11:17:24,526772.0,0.0,0.0
11:17:24,526201.0,0.0,0.0
11:17:24,526638.0,0.0,0.0
11:17:24,526358.0,0.0,0.0
11:17:24,526396.0,0.0,0.0
11:17:24,526638.0,0.0,0.0
11:17:24,526333.0,0.0,0.0
11:17:24,526630.0,0.0,0.0
11:17:24,526523.0,0.0,0.0
11:17:24,526381.0,0.0,0.0
11:17:24,526784.0,0.0,0.0
11:17:24,526333.0,0.0,0.0
11:17:24,526854.0,0.0,0.0
11:17:24,526539.0,0.0,0.0
11:17:24,526419.0,0.0,0.0
11:17:24,526785.0,0.0,0.0
11:17:24,526278.0,0.0,0.0
11:17:24,526690.0,0.0,0.0
11:17:24,526438.0,0.0,0.0
11:17:24,526455.0,0.0,0.0
11:17:24,526651.0,0.0,0.0
11:17:24,526264.0,0.0,0.0
11:17:24,526612.0,0.0,0.0
11:17:24,526563.0,0.0,0.0
11:17:24,526429.0,0.0,0.0
11:17:24,526838.0,0.0,0.0
11:17:24,526271.0,0.0,0.0
11:17:24,526747.0,0.0,0.0
11:17:24,526430.0,0.0,0.0
11:17:24,526442.0,0.0,0.0
11:17:24,526668.0,0.0,0.0
11:17:24,526285.0,0.0,0.0
11:17:24,526536.0,0.0,0.0
11:17:24,526394.0,0.0,0.0
11:17:25,526312.0,0.0,0.0
11:17:25,526682.0,0.0,0.0
11:17:25,526235.0,0.0,0.0
11:17:25,526663.0,0.0,0.0
11:17:25,526500.0,0.0,0.0
11:17:25,526487.0,0.0,0.0
11:17:25,526829.0,0.0,0.0
11:17:25,526376.0,0.0,0.0
11:17:25,526850.0,0.0,0.0
11:17:25,526564.0,0.0,0.0
11:17:25,526256.0,0.0,0.0
11:17:25,526430.0,0.0,0.0
11:17:25,526150.0,0.0,0.0
11:17:25,526709.0,0.0,0.0
11:17:25,526689.0,0.0,0.0
11:17:25,526568.0,0.0,0.0
11:17:25,526918.0,0.0,0.0
11:17:25,526480.0,0.0,0.0
11:17:25,526963.0,0.0,0.0
11:17:25,526703.0,0.0,0.0
11:17:25,526738.0,0.0,0.0
11:17:25,527006.0,0.0,0.0
11:17:25,526584.0,0.0,0.0
11:17:25,526975.0,0.0,0.0
11:17:25,526852.0,0.0,0.0
11:17:25,526683.0,0.0,0.0
11:17:25,527016.0,0.0,0.0
11:17:25,526598.0,0.0,0.0
11:17:25,527061.0,0.0,0.0
11:17:25,526836.0,0.0,0.0
11:17:25,526759.0,0.0,0.0
11:17:25,527210.0,0.0,0.0
11:17:25,526744.0,0.0,0.0
11:17:25,527178.0,0.0,0.0
11:17:25,526938.0,0.0,0.0
11:17:25,526899.0,0.0,0.0
11:17:25,527206.0,0.0,0.0
11:17:25,526717.0,0.0,0.0
11:17:25,527024.0,0.0,0.0
11:17:25,526933.0,0.0,0.0
11:17:25,526813.0,0.0,0.0
11:17:25,527223.0,0.0,0.0
11:17:25,526754.0,0.0,0.0
11:17:25,527209.0,0.0,0.0
11:17:25,526981.0,0.0,0.0
11:17:25,526968.0,0.0,0.0
11:17:25,527356.0,0.0,0.0
11:17:25,526993.0,0.0,0.0
11:17:25,527351.0,0.0,0.0
11:17:25,527210.0,0.0,0.0
11:17:25,527079.0,0.0,0.0
11:17:25,527516.0,0.0,0.0
11:17:25,526992.0,0.0,0.0
11:17:25,527459.0,0.0,0.0
11:17:25,527288.0,0.0,0.0
11:17:25,527178.0,0.0,0.0
11:17:25,527477.0,0.0,0.0
11:17:25,527092.0,0.0,0.0
11:17:25,527569.0,0.0,0.0
11:17:25,527372.0,0.0,0.0
11:17:25,527390.0,0.0,0.0
11:17:25,527769.0,0.0,0.0
11:17:25,527321.0,0.0,0.0
11:17:25,527664.0,0.0,0.0
11:17:25,527587.0,0.0,0.0
11:17:25,527454.0,0.0,0.0
11:17:25,527846.0,0.0,0.0
11:17:25,527420.0,0.0,0.0
11:17:25,527894.0,0.0,0.0
11:17:25,527633.0,0.0,0.0
11:17:25,527633.0,0.0,0.0
11:17:25,527924.0,0.0,0.0
11:17:25,527551.0,0.0,0.0
11:17:25,527929.0,0.0,0.0
11:17:25,527834.0,0.0,0.0
11:17:25,527672.0,0.0,0.0
11:17:25,528064.0,0.0,0.0
11:17:25,527624.0,0.0,0.0
11:17:25,527986.0,0.0,0.0
11:17:25,527810.0,0.0,0.0
11:17:25,527795.0,0.0,0.0
11:17:25,528183.0,0.0,0.0
11:17:25,527749.0,0.0,0.0
11:17:25,528151.0,0.0,0.0
11:17:25,527937.0,0.0,0.0
11:17:25,527811.0,0.0,0.0
11:17:25,527991.0,0.0,0.0
11:17:25,527711.0,0.0,0.0
11:17:25,528218.0,0.0,0.0
11:17:25,528227.0,0.0,0.0
11:17:25,528093.0,0.0,0.0
11:17:25,528509.0,0.0,0.0
11:17:25,527928.0,0.0,0.0
11:17:25,528389.0,0.0,0.0
11:17:25,528056.0,0.0,0.0
11:17:25,528019.0,0.0,0.0
11:17:25,528324.0,0.0,0.0
11:17:25,527989.0,0.0,0.0
11:17:25,528288.0,0.0,0.0
11:17:25,528123.0,0.0,0.0
11:17:25,528114.0,0.0,0.0
11:17:25,528521.0,0.0,0.0
11:17:25,528063.0,0.0,0.0
11:17:25,528564.0,0.0,0.0
11:17:25,528288.0,0.0,0.0
11:17:25,528214.0,0.0,0.0
11:17:25,528588.0,0.0,0.0
11:17:25,528119.0,0.0,0.0
11:17:25,528456.0,0.0,0.0
11:17:25,528196.0,0.0,0.0
11:17:25,528259.0,0.0,0.0
11:17:25,528604.0,0.0,0.0
11:17:25,528216.0,0.0,0.0
11:17:25,528599.0,0.0,0.0
11:17:25,528482.0,0.0,0.0
11:17:25,528431.0,0.0,0.0
11:17:25,528859.0,0.0,0.0
11:17:25,528313.0,0.0,0.0
11:17:25,528817.0,0.0,0.0
11:17:25,528576.0,0.0,0.0
11:17:25,528655.0,0.0,0.0
11:17:25,528865.0,0.0,0.0
11:17:25,528396.0,0.0,0.0
11:17:25,528819.0,0.0,0.0
11:17:25,528741.0,0.0,0.0
11:17:26,528721.0,0.0,0.0
11:17:26,529164.0,0.0,0.0
11:17:26,528773.0,0.0,0.0
11:17:26,529191.0,0.0,0.0
11:17:26,528933.0,0.0,0.0
11:17:26,528976.0,0.0,0.0
11:17:26,529351.0,0.0,0.0
11:17:26,528843.0,0.0,0.0
11:17:26,529340.0,0.0,0.0
11:17:26,529191.0,0.0,0.0
11:17:26,529091.0,0.0,0.0
11:17:26,529267.0,0.0,0.0
11:17:26,528922.0,0.0,0.0
11:17:26,529348.0,0.0,0.0
11:17:26,529223.0,0.0,0.0
11:17:26,529161.0,0.0,0.0
11:17:26,529548.0,0.0,0.0
11:17:26,528958.0,0.0,0.0
11:17:26,529498.0,0.0,0.0
11:17:26,529274.0,0.0,0.0
11:17:26,529248.0,0.0,0.0
11:17:26,529491.0,0.0,0.0
11:17:26,529150.0,0.0,0.0
11:17:26,529391.0,0.0,0.0
11:17:26,529222.0,0.0,0.0
11:17:26,529115.0,0.0,0.0
11:17:26,529511.0,0.0,0.0
11:17:26,529059.0,0.0,0.0
11:17:26,529548.0,0.0,0.0
11:17:26,529338.0,0.0,0.0
11:17:26,529244.0,0.0,0.0
11:17:26,529589.0,0.0,0.0
11:17:26,529154.0,0.0,0.0
11:17:26,529533.0,0.0,0.0
11:17:26,529243.0,0.0,0.0
11:17:26,529269.0,0.0,0.0
11:17:26,529605.0,0.0,0.0
11:17:26,529229.0,0.0,0.0
11:17:26,529599.0,0.0,0.0
11:17:26,529453.0,0.0,0.0
11:17:26,529281.0,0.0,0.0
11:17:26,529761.0,0.0,0.0
11:17:26,529174.0,0.0,0.0
11:17:26,529603.0,0.0,0.0
11:17:26,529323.0,0.0,0.0
11:17:26,529399.0,0.0,0.0
11:17:26,529684.0,0.0,0.0
11:17:26,529362.0,0.0,0.0
11:17:26,529681.0,0.0,0.0
11:17:26,529443.0,0.0,0.0
11:17:26,529334.0,0.0,0.0
11:17:26,529690.0,0.0,0.0
11:17:26,529196.0,0.0,0.0
11:17:26,529695.0,0.0,0.0
11:17:26,529507.0,0.0,0.0
11:17:26,529399.0,0.0,0.0
11:17:26,529682.0,0.0,0.0
11:17:26,529191.0,0.0,0.0
11:17:26,529670.0,0.0,0.0
11:17:26,529439.0,0.0,0.0
11:17:26,529461.0,0.0,0.0
11:17:26,529729.0,0.0,0.0
11:17:26,529206.0,0.0,0.0
11:17:26,529510.0,0.0,0.0
11:17:26,529465.0,0.0,0.0
11:17:26,529373.0,0.0,0.0
11:17:26,529714.0,0.0,0.0
11:17:26,529143.0,0.0,0.0
11:17:26,529636.0,0.0,0.0
11:17:26,529381.0,0.0,0.0
11:17:26,529510.0,0.0,0.0
11:17:26,529656.0,0.0,0.0
11:17:26,529270.0,0.0,0.0
11:17:26,529721.0,0.0,0.0
11:17:26,529634.0,0.0,0.0
11:17:26,529469.0,0.0,0.0
11:17:26,529806.0,0.0,0.0
11:17:26,529297.0,0.0,0.0
11:17:26,529717.0,0.0,0.0
11:17:26,529516.0,0.0,0.0
11:17:26,529516.0,0.0,0.0
11:17:26,529791.0,0.0,0.0
11:17:26,529431.0,0.0,0.0
11:17:26,529790.0,0.0,0.0
11:17:26,529496.0,0.0,0.0
11:17:26,529588.0,0.0,0.0
11:17:26,529903.0,0.0,0.0
11:17:26,529479.0,0.0,0.0
11:17:26,529859.0,0.0,0.0
11:17:26,529668.0,0.0,0.0
11:17:26,529518.0,0.0,0.0
11:17:26,529884.0,0.0,0.0
11:17:26,529436.0,0.0,0.0
11:17:26,529904.0,0.0,0.0
11:17:26,529566.0,0.0,0.0
11:17:26,529710.0,0.0,0.0
11:17:26,529838.0,0.0,0.0
11:17:26,529444.0,0.0,0.0
11:17:26,529801.0,0.0,0.0
11:17:26,529656.0,0.0,0.0
11:17:26,529563.0,0.0,0.0
11:17:26,529984.0,0.0,0.0
11:17:26,529584.0,0.0,0.0
11:17:26,529898.0,0.0,0.0
11:17:26,529499.0,0.0,0.0
11:17:26,529453.0,0.0,0.0
11:17:26,529819.0,0.0,0.0
11:17:26,529471.0,0.0,0.0
11:17:26,530019.0,0.0,0.0
11:17:26,529688.0,0.0,0.0
11:17:26,529659.0,0.0,0.0
11:17:26,529884.0,0.0,0.0
11:17:26,529503.0,0.0,0.0
11:17:26,529814.0,0.0,0.0
11:17:26,529723.0,0.0,0.0
11:17:26,529636.0,0.0,0.0
11:17:26,529977.0,0.0,0.0
11:17:26,529341.0,0.0,0.0
11:17:26,529915.0,0.0,0.0
11:17:26,529585.0,0.0,0.0
11:17:26,529658.0,0.0,0.0
11:17:26,529826.0,0.0,0.0
11:17:26,529534.0,0.0,0.0
11:17:26,529799.0,0.0,0.0
11:17:26,529590.0,0.0,0.0
11:17:26,529543.0,0.0,0.0
11:17:27,529873.0,0.0,0.0
11:17:27,529318.0,0.0,0.0
11:17:27,529884.0,0.0,0.0
11:17:27,529714.0,0.0,0.0
11:17:27,529663.0,0.0,0.0
11:17:27,529885.0,0.0,0.0
11:17:27,529463.0,0.0,0.0
11:17:27,529850.0,0.0,0.0
11:17:27,529514.0,0.0,0.0
11:17:27,529573.0,0.0,0.0
11:17:27,529743.0,0.0,0.0
11:17:27,529355.0,0.0,0.0
11:17:27,529766.0,0.0,0.0
11:17:27,529659.0,0.0,0.0
11:17:27,529518.0,0.0,0.0
11:17:27,529966.0,0.0,0.0
11:17:27,529405.0,0.0,0.0
11:17:27,529929.0,0.0,0.0
11:17:27,529584.0,0.0,0.0
11:17:27,529686.0,0.0,0.0
11:17:27,529826.0,0.0,0.0
11:17:27,529453.0,0.0,0.0
11:17:27,529819.0,0.0,0.0
11:17:27,529669.0,0.0,0.0
11:17:27,529539.0,0.0,0.0
11:17:27,529904.0,0.0,0.0
11:17:27,529377.0,0.0,0.0
11:17:27,529838.0,0.0,0.0
11:17:27,529623.0,0.0,0.0
11:17:27,529706.0,0.0,0.0
11:17:27,529987.0,0.0,0.0
11:17:27,529494.0,0.0,0.0
11:17:27,529988.0,0.0,0.0
11:17:27,529688.0,0.0,0.0
11:17:27,529681.0,0.0,0.0
11:17:27,529899.0,0.0,0.0
11:17:27,529531.0,0.0,0.0
11:17:27,529850.0,0.0,0.0
11:17:27,529739.0,0.0,0.0
11:17:27,529627.0,0.0,0.0
11:17:27,529901.0,0.0,0.0
11:17:27,529395.0,0.0,0.0
11:17:27,529986.0,0.0,0.0
11:17:27,529565.0,0.0,0.0
11:17:27,529772.0,0.0,0.0
11:17:27,530049.0,0.0,0.0
11:17:27,529688.0,0.0,0.0
11:17:27,529990.0,0.0,0.0
11:17:27,529686.0,0.0,0.0
11:17:27,529489.0,0.0,0.0
11:17:27,529863.0,0.0,0.0
11:17:27,529403.0,0.0,0.0
11:17:27,529976.0,0.0,0.0
11:17:27,529726.0,0.0,0.0
11:17:27,529701.0,0.0,0.0
11:17:27,529944.0,0.0,0.0
11:17:27,529476.0,0.0,0.0
11:17:27,529955.0,0.0,0.0
11:17:27,529585.0,0.0,0.0
11:17:27,529651.0,0.0,0.0
11:17:27,529912.0,0.0,0.0
11:17:27,529471.0,0.0,0.0
11:17:27,529793.0,0.0,0.0
11:17:27,529704.0,0.0,0.0
11:17:27,529544.0,0.0,0.0
11:17:27,529840.0,0.0,0.0
11:17:27,529344.0,0.0,0.0
11:17:27,529843.0,0.0,0.0
11:17:27,529488.0,0.0,0.0
11:17:27,529599.0,0.0,0.0
11:17:27,529814.0,0.0,0.0
11:17:27,529414.0,0.0,0.0
11:17:27,529784.0,0.0,0.0
11:17:27,529539.0,0.0,0.0
11:17:27,529433.0,0.0,0.0
11:17:27,529809.0,0.0,0.0
11:17:27,529334.0,0.0,0.0
11:17:27,529671.0,0.0,0.0
11:17:27,529388.0,0.0,0.0
11:17:27,529343.0,0.0,0.0
11:17:27,529578.0,0.0,0.0
11:17:27,529140.0,0.0,0.0
11:17:27,529724.0,0.0,0.0
11:17:27,529429.0,0.0,0.0
11:17:27,529431.0,0.0,0.0
11:17:27,529681.0,0.0,0.0
11:17:27,529277.0,0.0,0.0
11:17:27,529686.0,0.0,0.0
11:17:27,529501.0,0.0,0.0
11:17:27,529397.0,0.0,0.0
11:17:27,529754.0,0.0,0.0
11:17:27,529214.0,0.0,0.0
11:17:27,529725.0,0.0,0.0
11:17:27,529369.0,0.0,0.0
11:17:27,529469.0,0.0,0.0
11:17:27,529742.0,0.0,0.0
11:17:27,529379.0,0.0,0.0
11:17:27,529672.0,0.0,0.0
11:17:27,529446.0,0.0,0.0
11:17:27,529453.0,0.0,0.0
11:17:27,529710.0,0.0,0.0
11:17:27,529235.0,0.0,0.0
11:17:27,529683.0,0.0,0.0
11:17:27,529372.0,0.0,0.0
11:17:27,529293.0,0.0,0.0
11:17:27,529559.0,0.0,0.0
11:17:27,529127.0,0.0,0.0
11:17:27,529547.0,0.0,0.0
11:17:27,529259.0,0.0,0.0
11:17:27,529331.0,0.0,0.0
11:17:27,529557.0,0.0,0.0
11:17:27,529184.0,0.0,0.0
11:17:27,529593.0,0.0,0.0
11:17:27,529350.0,0.0,0.0
11:17:27,529331.0,0.0,0.0
11:17:27,529731.0,0.0,0.0
11:17:27,529170.0,0.0,0.0
11:17:27,529551.0,0.0,0.0
11:17:27,528968.0,0.0,0.0
11:17:27,528989.0,0.0,0.0
11:17:27,529334.0,0.0,0.0
11:17:27,529062.0,0.0,0.0
11:17:27,529484.0,0.0,0.0
11:17:27,529236.0,0.0,0.0
11:17:27,529219.0,0.0,0.0
11:17:28,529416.0,0.0,0.0
11:17:28,528987.0,0.0,0.0
11:17:28,529413.0,0.0,0.0
11:17:28,529086.0,0.0,0.0
11:17:28,529070.0,0.0,0.0
11:17:28,529309.0,0.0,0.0
11:17:28,528851.0,0.0,0.0
11:17:28,529335.0,0.0,0.0
11:17:28,528966.0,0.0,0.0
11:17:28,528959.0,0.0,0.0
11:17:28,529155.0,0.0,0.0
11:17:28,528715.0,0.0,0.0
11:17:28,529096.0,0.0,0.0
11:17:28,528843.0,0.0,0.0
11:17:28,528808.0,0.0,0.0
11:17:28,529183.0,0.0,0.0
11:17:28,528607.0,0.0,0.0
11:17:28,529064.0,0.0,0.0
11:17:28,528688.0,0.0,0.0
11:17:28,528773.0,0.0,0.0
11:17:28,528889.0,0.0,0.0
11:17:28,528543.0,0.0,0.0
11:17:28,528834.0,0.0,0.0
11:17:28,528573.0,0.0,0.0
11:17:28,528463.0,0.0,0.0
11:17:28,528754.0,0.0,0.0
11:17:28,528275.0,0.0,0.0
11:17:28,528821.0,0.0,0.0
11:17:28,528463.0,0.0,0.0
11:17:28,528398.0,0.0,0.0
11:17:28,528697.0,0.0,0.0
11:17:28,528228.0,0.0,0.0
11:17:28,528739.0,0.0,0.0
11:17:28,528446.0,0.0,0.0
11:17:28,528429.0,0.0,0.0
11:17:28,528606.0,0.0,0.0
11:17:28,528251.0,0.0,0.0
11:17:28,528607.0,0.0,0.0
11:17:28,528371.0,0.0,0.0
11:17:28,528289.0,0.0,0.0
11:17:28,528578.0,0.0,0.0
11:17:28,528121.0,0.0,0.0
11:17:28,528657.0,0.0,0.0
11:17:28,528304.0,0.0,0.0
11:17:28,528443.0,0.0,0.0
11:17:28,528564.0,0.0,0.0
11:17:28,528101.0,0.0,0.0
11:17:28,528481.0,0.0,0.0
11:17:28,528238.0,0.0,0.0
11:17:28,528159.0,0.0,0.0
11:17:28,528415.0,0.0,0.0
11:17:28,528012.0,0.0,0.0
11:17:28,528448.0,0.0,0.0
11:17:28,528139.0,0.0,0.0
11:17:28,528103.0,0.0,0.0
11:17:28,528388.0,0.0,0.0
11:17:28,528051.0,0.0,0.0
11:17:28,528506.0,0.0,0.0
11:17:28,528113.0,0.0,0.0
11:17:28,528145.0,0.0,0.0
11:17:28,528374.0,0.0,0.0
11:17:28,527871.0,0.0,0.0
11:17:28,528044.0,0.0,0.0
11:17:28,527756.0,0.0,0.0
11:17:28,527730.0,0.0,0.0
11:17:28,528168.0,0.0,0.0
11:17:28,527837.0,0.0,0.0
11:17:28,528376.0,0.0,0.0
11:17:28,528034.0,0.0,0.0
11:17:28,528093.0,0.0,0.0
11:17:28,528224.0,0.0,0.0
11:17:28,527797.0,0.0,0.0
11:17:28,528159.0,0.0,0.0
11:17:28,527948.0,0.0,0.0
11:17:28,527852.0,0.0,0.0
11:17:28,528069.0,0.0,0.0
11:17:28,527692.0,0.0,0.0
11:17:28,528029.0,0.0,0.0
11:17:28,527693.0,0.0,0.0
11:17:28,527759.0,0.0,0.0
11:17:28,528029.0,0.0,0.0
11:17:28,527498.0,0.0,0.0
11:17:28,527988.0,0.0,0.0
11:17:28,527629.0,0.0,0.0
11:17:28,527710.0,0.0,0.0
11:17:28,527918.0,0.0,0.0
11:17:28,527531.0,0.0,0.0
11:17:28,527928.0,0.0,0.0
11:17:28,527623.0,0.0,0.0
11:17:28,527474.0,0.0,0.0
11:17:28,527836.0,0.0,0.0
11:17:28,527279.0,0.0,0.0
11:17:28,527741.0,0.0,0.0
11:17:28,527402.0,0.0,0.0
11:17:28,527488.0,0.0,0.0
11:17:28,527624.0,0.0,0.0
11:17:28,527266.0,0.0,0.0
11:17:28,527739.0,0.0,0.0
11:17:28,527521.0,0.0,0.0
11:17:28,527559.0,0.0,0.0
11:17:28,527774.0,0.0,0.0
11:17:28,527240.0,0.0,0.0
11:17:28,527709.0,0.0,0.0
11:17:28,527393.0,0.0,0.0
11:17:28,527429.0,0.0,0.0
11:17:28,527628.0,0.0,0.0
11:17:28,527176.0,0.0,0.0
11:17:28,527626.0,0.0,0.0
11:17:28,527236.0,0.0,0.0
11:17:28,527419.0,0.0,0.0
11:17:28,527626.0,0.0,0.0
11:17:28,527232.0,0.0,0.0
11:17:28,527613.0,0.0,0.0
11:17:28,527366.0,0.0,0.0
11:17:28,527354.0,0.0,0.0
11:17:28,527711.0,0.0,0.0
11:17:28,527123.0,0.0,0.0
11:17:28,527554.0,0.0,0.0
11:17:28,527133.0,0.0,0.0
11:17:28,527199.0,0.0,0.0
11:17:28,527418.0,0.0,0.0
11:17:28,527024.0,0.0,0.0
11:17:28,527361.0,0.0,0.0
11:17:28,527171.0,0.0,0.0
11:17:28,527214.0,0.0,0.0
11:17:29,527446.0,0.0,0.0
11:17:29,527056.0,0.0,0.0
11:17:29,527518.0,0.0,0.0
11:17:29,527204.0,0.0,0.0
11:17:29,527215.0,0.0,0.0
11:17:29,527455.0,0.0,0.0
11:17:29,526988.0,0.0,0.0
11:17:29,527426.0,0.0,0.0
11:17:29,526898.0,0.0,0.0
11:17:29,526868.0,0.0,0.0
11:17:29,527124.0,0.0,0.0
11:17:29,526990.0,0.0,0.0
11:17:29,527354.0,0.0,0.0
11:17:29,527255.0,0.0,0.0
11:17:29,527364.0,0.0,0.0
11:17:29,527498.0,0.0,0.0
11:17:29,527119.0,0.0,0.0
11:17:29,527531.0,0.0,0.0
11:17:29,527121.0,0.0,0.0
11:17:29,527204.0,0.0,0.0
11:17:29,527258.0,0.0,0.0
11:17:29,527059.0,0.0,0.0
11:17:29,527291.0,0.0,0.0
11:17:29,527151.0,0.0,0.0
11:17:29,527127.0,0.0,0.0
11:17:29,527213.0,0.0,0.0
11:17:29,527076.0,0.0,0.0
11:17:29,527334.0,0.0,0.0
11:17:29,527203.0,0.0,0.0
11:17:29,527289.0,0.0,0.0
11:17:29,527254.0,0.0,0.0
11:17:29,527005.0,0.0,0.0
11:17:29,527311.0,0.0,0.0
11:17:29,526986.0,0.0,0.0
11:17:29,527119.0,0.0,0.0
11:17:29,527113.0,0.0,0.0
11:17:29,526866.0,0.0,0.0
11:17:29,527140.0,0.0,0.0
11:17:29,526959.0,0.0,0.0
11:17:29,526945.0,0.0,0.0
11:17:29,527153.0,0.0,0.0
11:17:29,526841.0,0.0,0.0
11:17:29,527274.0,0.0,0.0
11:17:29,526858.0,0.0,0.0
11:17:29,526901.0,0.0,0.0
11:17:29,527062.0,0.0,0.0
11:17:29,526830.0,0.0,0.0
11:17:29,526978.0,0.0,0.0
11:17:29,526677.0,0.0,0.0
11:17:29,526761.0,0.0,0.0
11:17:29,527006.0,0.0,0.0
11:17:29,526783.0,0.0,0.0
11:17:29,527191.0,0.0,0.0
11:17:29,526881.0,0.0,0.0
11:17:29,526919.0,0.0,0.0
11:17:29,527183.0,0.0,0.0
11:17:29,526806.0,0.0,0.0
11:17:29,527364.0,0.0,0.0
11:17:29,526946.0,0.0,0.0
11:17:29,526951.0,0.0,0.0
11:17:29,527162.0,0.0,0.0
11:17:29,526794.0,0.0,0.0
11:17:29,527154.0,0.0,0.0
11:17:29,526915.0,0.0,0.0
11:17:29,526846.0,0.0,0.0
11:17:29,527149.0,0.0,0.0
11:17:29,526728.0,0.0,0.0
11:17:29,527238.0,0.0,0.0
11:17:29,526846.0,0.0,0.0
11:17:29,527029.0,0.0,0.0
11:17:29,527241.0,0.0,0.0
11:17:29,526819.0,0.0,0.0
11:17:29,527206.0,0.0,0.0
11:17:29,526941.0,0.0,0.0
11:17:29,526979.0,0.0,0.0
11:17:29,527344.0,0.0,0.0
11:17:29,526889.0,0.0,0.0
11:17:29,527446.0,0.0,0.0
11:17:29,527252.0,0.0,0.0
11:17:29,527177.0,0.0,0.0
11:17:29,527321.0,0.0,0.0
11:17:29,526848.0,0.0,0.0
11:17:29,527594.0,0.0,0.0
11:17:29,527323.0,0.0,0.0
11:17:29,527390.0,0.0,0.0
11:17:29,527787.0,0.0,0.0
11:17:29,527235.0,0.0,0.0
11:17:29,527634.0,0.0,0.0
11:17:29,527351.0,0.0,0.0
11:17:29,527285.0,0.0,0.0
11:17:29,527603.0,0.0,0.0
11:17:29,527046.0,0.0,0.0
11:17:29,527463.0,0.0,0.0
11:17:29,527150.0,0.0,0.0
11:17:29,527210.0,0.0,0.0
11:17:29,527401.0,0.0,0.0
11:17:29,527164.0,0.0,0.0
11:17:29,527558.0,0.0,0.0
11:17:29,527203.0,0.0,0.0
11:17:29,527067.0,0.0,0.0
11:17:29,527351.0,0.0,0.0
11:17:29,526890.0,0.0,0.0
11:17:29,527276.0,0.0,0.0
11:17:29,526878.0,0.0,0.0
11:17:29,527051.0,0.0,0.0
11:17:29,527476.0,0.0,0.0
11:17:29,527011.0,0.0,0.0
11:17:29,527444.0,0.0,0.0
11:17:29,526918.0,0.0,0.0
11:17:29,526968.0,0.0,0.0
11:17:29,527161.0,0.0,0.0
11:17:29,526740.0,0.0,0.0
11:17:29,527028.0,0.0,0.0
11:17:29,526812.0,0.0,0.0
11:17:29,526823.0,0.0,0.0
11:17:29,527009.0,0.0,0.0
11:17:29,526658.0,0.0,0.0
11:17:29,527115.0,0.0,0.0
11:17:29,526925.0,0.0,0.0
11:17:29,526845.0,0.0,0.0
11:17:29,526729.0,0.0,0.0
11:17:29,526971.0,0.0,0.0
11:17:29,527384.0,0.0,0.0
11:17:29,527209.0,0.0,0.0
11:17:29,527215.0,0.0,0.0
11:17:30,527089.0,0.0,0.0
11:17:30,526745.0,0.0,0.0
11:17:30,527286.0,0.0,0.0
11:17:30,527169.0,0.0,0.0
11:17:30,527417.0,0.0,0.0
11:17:30,527543.0,0.0,0.0
11:17:30,527272.0,0.0,0.0
11:17:30,527849.0,0.0,0.0
11:17:30,527619.0,0.0,0.0
11:17:30,527664.0,0.0,0.0
11:17:30,527753.0,0.0,0.0
11:17:30,527431.0,0.0,0.0
11:17:30,527794.0,0.0,0.0
11:17:30,527765.0,0.0,0.0
11:17:30,527743.0,0.0,0.0
11:17:30,528111.0,0.0,0.0
11:17:30,527638.0,0.0,0.0
11:17:30,527887.0,0.0,0.0
11:17:30,527779.0,0.0,0.0
11:17:30,528039.0,0.0,0.0
11:17:30,528089.0,0.0,0.0
11:17:30,527778.0,0.0,0.0
11:17:30,528059.0,0.0,0.0
11:17:30,527744.0,0.0,0.0
11:17:30,527816.0,0.0,0.0
11:17:30,527962.0,0.0,0.0
11:17:30,527801.0,0.0,0.0
11:17:30,528233.0,0.0,0.0
11:17:30,528014.0,0.0,0.0
11:17:30,528198.0,0.0,0.0
11:17:30,528446.0,0.0,0.0
11:17:30,527834.0,0.0,0.0
11:17:30,528052.0,0.0,0.0
11:17:30,527873.0,0.0,0.0
11:17:30,527828.0,0.0,0.0
11:17:30,527873.0,0.0,0.0
11:17:30,527804.0,0.0,0.0
11:17:30,528136.0,0.0,0.0
11:17:30,527926.0,0.0,0.0
11:17:30,527948.0,0.0,0.0
11:17:30,528093.0,0.0,0.0
11:17:30,527641.0,0.0,0.0
11:17:30,527963.0,0.0,0.0
11:17:30,527652.0,0.0,0.0
11:17:30,527764.0,0.0,0.0
11:17:30,527834.0,0.0,0.0
11:17:30,527772.0,0.0,0.0
11:17:30,528001.0,0.0,0.0
11:17:30,527720.0,0.0,0.0
11:17:30,527795.0,0.0,0.0
11:17:30,528016.0,0.0,0.0
11:17:30,527829.0,0.0,0.0
11:17:30,528278.0,0.0,0.0
11:17:30,528013.0,0.0,0.0
11:17:30,528100.0,0.0,0.0
11:17:30,528340.0,0.0,0.0
11:17:30,528011.0,0.0,0.0
11:17:30,528416.0,0.0,0.0
11:17:30,528206.0,0.0,0.0
11:17:30,528356.0,0.0,0.0
11:17:30,528513.0,0.0,0.0
11:17:30,528243.0,0.0,0.0
11:17:30,528727.0,0.0,0.0
11:17:30,528539.0,0.0,0.0
11:17:30,528574.0,0.0,0.0
11:17:30,528993.0,0.0,0.0
11:17:30,528496.0,0.0,0.0
11:17:30,529116.0,0.0,0.0
11:17:30,528767.0,0.0,0.0
11:17:30,529161.0,0.0,0.0
11:17:30,529406.0,0.0,0.0
11:17:30,529274.0,0.0,0.0
11:17:30,529763.0,0.0,0.0
11:17:30,529664.0,0.0,0.0
11:17:30,529782.0,0.0,0.0
11:17:30,530231.0,0.0,0.0
11:17:30,529878.0,0.0,0.0
11:17:30,530485.0,0.0,0.0
11:17:30,530165.0,0.0,0.0
11:17:30,530351.0,0.0,0.0
11:17:30,530796.0,0.0,0.0
11:17:30,530490.0,0.0,0.0
11:17:30,531058.0,0.0,0.0
11:17:30,530748.0,0.0,0.0
11:17:30,531018.0,0.0,0.0
11:17:30,531384.0,0.0,0.0
11:17:30,531314.0,0.0,0.0
11:17:30,531731.0,0.0,0.0
11:17:30,531752.0,0.0,0.0
11:17:30,532009.0,0.0,0.0
11:17:30,532554.0,0.0,0.0
11:17:30,532259.0,0.0,0.0
11:17:30,532481.0,0.0,0.0
11:17:30,531964.0,0.0,0.0
11:17:30,532218.0,0.0,0.0
11:17:30,532225.0,0.0,0.0
11:17:30,532166.0,0.0,0.0
11:17:30,532548.0,0.0,0.0
11:17:30,532448.0,0.0,0.0
11:17:30,532506.0,0.0,0.0
11:17:30,532668.0,0.0,0.0
11:17:30,532283.0,0.0,0.0
11:17:30,532696.0,0.0,0.0
11:17:30,532456.0,0.0,0.0
11:17:30,532544.0,0.0,0.0
11:17:30,532629.0,0.0,0.0
11:17:30,532200.0,0.0,0.0
11:17:30,532569.0,0.0,0.0
11:17:30,532208.0,0.0,0.0
11:17:30,532344.0,0.0,0.0
11:17:30,532327.0,0.0,0.0
11:17:30,532141.0,0.0,0.0
11:17:30,532316.0,0.0,0.0
11:17:30,532132.0,0.0,0.0
11:17:30,531946.0,0.0,0.0
11:17:30,532111.0,0.0,0.0
11:17:30,531831.0,0.0,0.0
11:17:30,532321.0,0.0,0.0
11:17:30,531998.0,0.0,0.0
11:17:30,532224.0,0.0,0.0
11:17:30,532242.0,0.0,0.0
11:17:30,532068.0,0.0,0.0
11:17:30,532368.0,0.0,0.0
11:17:30,532224.0,0.0,0.0
11:17:31,532232.0,0.0,0.0
11:17:31,532463.0,0.0,0.0
11:17:31,532038.0,0.0,0.0
11:17:31,532453.0,0.0,0.0
11:17:31,532210.0,0.0,0.0
11:17:31,532334.0,0.0,0.0
11:17:31,532528.0,0.0,0.0
11:17:31,532212.0,0.0,0.0
11:17:31,532522.0,0.0,0.0
11:17:31,532319.0,0.0,0.0
11:17:31,532579.0,0.0,0.0
11:17:31,532647.0,0.0,0.0
11:17:31,532493.0,0.0,0.0
11:17:31,532758.0,0.0,0.0
11:17:31,532596.0,0.0,0.0
11:17:31,532497.0,0.0,0.0
11:17:31,532789.0,0.0,0.0
11:17:31,532379.0,0.0,0.0
11:17:31,532838.0,0.0,0.0
11:17:31,532409.0,0.0,0.0
11:17:31,532589.0,0.0,0.0
11:17:31,532641.0,0.0,0.0
11:17:31,532506.0,0.0,0.0
11:17:31,532858.0,0.0,0.0
11:17:31,532776.0,0.0,0.0
11:17:31,532778.0,0.0,0.0
11:17:31,532989.0,0.0,0.0
11:17:31,532567.0,0.0,0.0
11:17:31,533084.0,0.0,0.0
11:17:31,532886.0,0.0,0.0
11:17:31,532960.0,0.0,0.0
11:17:31,533160.0,0.0,0.0
11:17:31,532937.0,0.0,0.0
11:17:31,533481.0,0.0,0.0
11:17:31,533136.0,0.0,0.0
11:17:31,533195.0,0.0,0.0
11:17:31,533178.0,0.0,0.0
11:17:31,532781.0,0.0,0.0
11:17:31,532939.0,0.0,0.0
11:17:31,532612.0,0.0,0.0
11:17:31,532356.0,0.0,0.0
11:17:31,532579.0,0.0,0.0
11:17:31,532330.0,0.0,0.0
11:17:31,532865.0,0.0,0.0
11:17:31,532514.0,0.0,0.0
11:17:31,532654.0,0.0,0.0
11:17:31,532633.0,0.0,0.0
11:17:31,532563.0,0.0,0.0
11:17:31,532753.0,0.0,0.0
11:17:31,532522.0,0.0,0.0
11:17:31,532540.0,0.0,0.0
11:17:31,532675.0,0.0,0.0
11:17:31,532371.0,0.0,0.0
11:17:31,532647.0,0.0,0.0
11:17:31,532315.0,0.0,0.0
11:17:31,532470.0,0.0,0.0
11:17:31,532606.0,0.0,0.0
11:17:31,532311.0,0.0,0.0
11:17:31,532653.0,0.0,0.0
11:17:31,532441.0,0.0,0.0
11:17:31,532700.0,0.0,0.0
11:17:31,532801.0,0.0,0.0
11:17:31,532701.0,0.0,0.0
11:17:31,532909.0,0.0,0.0
11:17:31,532625.0,0.0,0.0
11:17:31,532552.0,0.0,0.0
11:17:31,532608.0,0.0,0.0
11:17:31,532130.0,0.0,0.0
11:17:31,532443.0,0.0,0.0
11:17:31,532092.0,0.0,0.0
11:17:31,532235.0,0.0,0.0
11:17:31,532170.0,0.0,0.0
11:17:31,531964.0,0.0,0.0
11:17:31,532224.0,0.0,0.0
11:17:31,532116.0,0.0,0.0
11:17:31,532348.0,0.0,0.0
11:17:31,532493.0,0.0,0.0
11:17:31,532133.0,0.0,0.0
11:17:31,532333.0,0.0,0.0
11:17:31,532117.0,0.0,0.0
11:17:31,532298.0,0.0,0.0
11:17:31,532342.0,0.0,0.0
11:17:31,532018.0,0.0,0.0
11:17:31,532305.0,0.0,0.0
11:17:31,532023.0,0.0,0.0
11:17:31,532248.0,0.0,0.0
11:17:31,532201.0,0.0,0.0
11:17:31,532034.0,0.0,0.0
11:17:31,532090.0,0.0,0.0
11:17:31,531935.0,0.0,0.0
11:17:31,531904.0,0.0,0.0
11:17:31,532067.0,0.0,0.0
11:17:31,531658.0,0.0,0.0
11:17:31,532039.0,0.0,0.0
11:17:31,531608.0,0.0,0.0
11:17:31,531731.0,0.0,0.0
11:17:31,531586.0,0.0,0.0
11:17:31,531375.0,0.0,0.0
11:17:31,531624.0,0.0,0.0
11:17:31,531448.0,0.0,0.0
11:17:31,531431.0,0.0,0.0
11:17:31,531558.0,0.0,0.0
11:17:31,531215.0,0.0,0.0
11:17:31,531648.0,0.0,0.0
11:17:31,531354.0,0.0,0.0
11:17:31,531328.0,0.0,0.0
11:17:31,531331.0,0.0,0.0
11:17:31,530769.0,0.0,0.0
11:17:31,531163.0,0.0,0.0
11:17:31,530883.0,0.0,0.0
11:17:31,531006.0,0.0,0.0
11:17:31,531083.0,0.0,0.0
11:17:31,530762.0,0.0,0.0
11:17:31,531173.0,0.0,0.0
11:17:31,531009.0,0.0,0.0
11:17:31,530936.0,0.0,0.0
11:17:31,531186.0,0.0,0.0
11:17:31,530926.0,0.0,0.0
11:17:31,531333.0,0.0,0.0
11:17:31,530879.0,0.0,0.0
11:17:31,530959.0,0.0,0.0
11:17:31,530983.0,0.0,0.0
11:17:31,530682.0,0.0,0.0
11:17:31,530927.0,0.0,0.0
11:17:31,530634.0,0.0,0.0
11:17:32,530617.0,0.0,0.0
11:17:32,530738.0,0.0,0.0
11:17:32,530341.0,0.0,0.0
11:17:32,530546.0,0.0,0.0
11:17:32,530164.0,0.0,0.0
11:17:32,530250.0,0.0,0.0
11:17:32,530396.0,0.0,0.0
11:17:32,530038.0,0.0,0.0
11:17:32,530393.0,0.0,0.0
11:17:32,530002.0,0.0,0.0
11:17:32,530213.0,0.0,0.0
11:17:32,530316.0,0.0,0.0
11:17:32,530038.0,0.0,0.0
11:17:32,530320.0,0.0,0.0
11:17:32,530036.0,0.0,0.0
11:17:32,530101.0,0.0,0.0
11:17:32,530413.0,0.0,0.0
11:17:32,530026.0,0.0,0.0
11:17:32,530577.0,0.0,0.0
11:17:32,530108.0,0.0,0.0
11:17:32,530259.0,0.0,0.0
11:17:32,530224.0,0.0,0.0
11:17:32,529981.0,0.0,0.0
11:17:32,530238.0,0.0,0.0
11:17:32,530019.0,0.0,0.0
11:17:32,530120.0,0.0,0.0
11:17:32,530238.0,0.0,0.0
11:17:32,529774.0,0.0,0.0
11:17:32,530088.0,0.0,0.0
11:17:32,529792.0,0.0,0.0
11:17:32,529945.0,0.0,0.0
11:17:32,530098.0,0.0,0.0
11:17:32,529797.0,0.0,0.0
11:17:32,530196.0,0.0,0.0
11:17:32,529896.0,0.0,0.0
11:17:32,530123.0,0.0,0.0
11:17:32,530014.0,0.0,0.0
11:17:32,529831.0,0.0,0.0
11:17:32,529986.0,0.0,0.0
11:17:32,529806.0,0.0,0.0
11:17:32,529833.0,0.0,0.0
11:17:32,529961.0,0.0,0.0
11:17:32,529655.0,0.0,0.0
11:17:32,530031.0,0.0,0.0
11:17:32,529719.0,0.0,0.0
11:17:32,529922.0,0.0,0.0
11:17:32,529774.0,0.0,0.0
11:17:32,529771.0,0.0,0.0
11:17:32,530154.0,0.0,0.0
11:17:32,529959.0,0.0,0.0
11:17:32,529832.0,0.0,0.0
11:17:32,529994.0,0.0,0.0
11:17:32,529863.0,0.0,0.0
11:17:32,530006.0,0.0,0.0
11:17:32,529699.0,0.0,0.0
11:17:32,529987.0,0.0,0.0
11:17:32,530251.0,0.0,0.0
11:17:32,529806.0,0.0,0.0
11:17:32,530302.0,0.0,0.0
11:17:32,530028.0,0.0,0.0
11:17:32,530078.0,0.0,0.0
11:17:32,530134.0,0.0,0.0
11:17:32,529997.0,0.0,0.0
11:17:32,530304.0,0.0,0.0
11:17:32,530051.0,0.0,0.0
11:17:32,529969.0,0.0,0.0
11:17:32,530016.0,0.0,0.0
11:17:32,529618.0,0.0,0.0
11:17:32,529931.0,0.0,0.0
11:17:32,529431.0,0.0,0.0
11:17:32,529689.0,0.0,0.0
11:17:32,529746.0,0.0,0.0
11:17:32,529578.0,0.0,0.0
11:17:32,529978.0,0.0,0.0
11:17:32,529832.0,0.0,0.0
11:17:32,529918.0,0.0,0.0
11:17:32,529877.0,0.0,0.0
11:17:32,529408.0,0.0,0.0
11:17:32,529741.0,0.0,0.0
11:17:32,529378.0,0.0,0.0
11:17:32,529482.0,0.0,0.0
11:17:32,529718.0,0.0,0.0
11:17:32,529388.0,0.0,0.0
11:17:32,529579.0,0.0,0.0
11:17:32,529283.0,0.0,0.0
11:17:32,529499.0,0.0,0.0
11:17:32,529414.0,0.0,0.0
11:17:32,529277.0,0.0,0.0
11:17:32,529410.0,0.0,0.0
11:17:32,529259.0,0.0,0.0
11:17:32,529198.0,0.0,0.0
11:17:32,529311.0,0.0,0.0
11:17:32,529091.0,0.0,0.0
11:17:32,529470.0,0.0,0.0
11:17:32,529131.0,0.0,0.0
11:17:32,529400.0,0.0,0.0
11:17:32,529363.0,0.0,0.0
11:17:32,529288.0,0.0,0.0
11:17:32,529421.0,0.0,0.0
11:17:32,529266.0,0.0,0.0
11:17:32,529329.0,0.0,0.0
11:17:32,529473.0,0.0,0.0
11:17:32,529161.0,0.0,0.0
11:17:32,529372.0,0.0,0.0
11:17:32,529108.0,0.0,0.0
11:17:32,529141.0,0.0,0.0
11:17:32,529109.0,0.0,0.0
11:17:32,528939.0,0.0,0.0
11:17:32,529299.0,0.0,0.0
11:17:32,529076.0,0.0,0.0
11:17:32,529197.0,0.0,0.0
11:17:32,529103.0,0.0,0.0
11:17:32,528984.0,0.0,0.0
11:17:32,529220.0,0.0,0.0
11:17:32,529131.0,0.0,0.0
11:17:32,529240.0,0.0,0.0
11:17:32,529304.0,0.0,0.0
11:17:32,529125.0,0.0,0.0
11:17:32,529329.0,0.0,0.0
11:17:32,528820.0,0.0,0.0
11:17:32,528888.0,0.0,0.0
11:17:32,528889.0,0.0,0.0
11:17:32,528907.0,0.0,0.0
11:17:32,529193.0,0.0,0.0
11:17:32,529076.0,0.0,0.0
11:17:33,529126.0,0.0,0.0
11:17:33,529201.0,0.0,0.0
11:17:33,528877.0,0.0,0.0
11:17:33,529098.0,0.0,0.0
11:17:33,528895.0,0.0,0.0
11:17:33,528983.0,0.0,0.0
11:17:33,529038.0,0.0,0.0
11:17:33,528743.0,0.0,0.0
11:17:33,528971.0,0.0,0.0
11:17:33,528676.0,0.0,0.0
11:17:33,528893.0,0.0,0.0
11:17:33,528870.0,0.0,0.0
11:17:33,528758.0,0.0,0.0
11:17:33,529009.0,0.0,0.0
11:17:33,528895.0,0.0,0.0
11:17:33,529035.0,0.0,0.0
11:17:33,529062.0,0.0,0.0
11:17:33,528739.0,0.0,0.0
11:17:33,529093.0,0.0,0.0
11:17:33,528790.0,0.0,0.0
11:17:33,528976.0,0.0,0.0
11:17:33,528913.0,0.0,0.0
11:17:33,528877.0,0.0,0.0
11:17:33,529118.0,0.0,0.0
11:17:33,529312.0,0.0,0.0
11:17:33,529055.0,0.0,0.0
11:17:33,528760.0,0.0,0.0
11:17:33,528551.0,0.0,0.0
11:17:33,528752.0,0.0,0.0
11:17:33,528473.0,0.0,0.0
11:17:33,528674.0,0.0,0.0
11:17:33,528723.0,0.0,0.0
11:17:33,528512.0,0.0,0.0
11:17:33,528784.0,0.0,0.0
11:17:33,528341.0,0.0,0.0
11:17:33,529012.0,0.0,0.0
11:17:33,528711.0,0.0,0.0
11:17:33,528186.0,0.0,0.0
11:17:33,528535.0,0.0,0.0
11:17:33,528554.0,0.0,0.0
11:17:33,528857.0,0.0,0.0
11:17:33,529232.0,0.0,0.0
11:17:33,529007.0,0.0,0.0
11:17:33,529670.0,0.0,0.0
11:17:33,529284.0,0.0,0.0
11:17:33,529334.0,0.0,0.0
11:17:33,529478.0,0.0,0.0
11:17:33,529083.0,0.0,0.0
11:17:33,528919.0,0.0,0.0
11:17:33,528366.0,0.0,0.0
11:17:33,528464.0,0.0,0.0
11:17:33,528891.0,0.0,0.0
11:17:33,528501.0,0.0,0.0
11:17:33,528695.0,0.0,0.0
11:17:33,528252.0,0.0,0.0
11:17:33,528323.0,0.0,0.0
11:17:33,528514.0,0.0,0.0
11:17:33,528216.0,0.0,0.0
11:17:33,528674.0,0.0,0.0
11:17:33,528561.0,0.0,0.0
11:17:33,528851.0,0.0,0.0
11:17:33,528941.0,0.0,0.0
11:17:33,528780.0,0.0,0.0
11:17:33,529106.0,0.0,0.0
11:17:33,529087.0,0.0,0.0
11:17:33,529129.0,0.0,0.0
11:17:33,529198.0,0.0,0.0
11:17:33,528657.0,0.0,0.0
11:17:33,529106.0,0.0,0.0
11:17:33,528915.0,0.0,0.0
11:17:33,529404.0,0.0,0.0
11:17:33,529417.0,0.0,0.0
11:17:33,528941.0,0.0,0.0
11:17:33,529164.0,0.0,0.0
11:17:33,529010.0,0.0,0.0
11:17:33,528968.0,0.0,0.0
11:17:33,528954.0,0.0,0.0
11:17:33,528673.0,0.0,0.0
11:17:33,529004.0,0.0,0.0
11:17:33,528721.0,0.0,0.0
11:17:33,528679.0,0.0,0.0
11:17:33,528761.0,0.0,0.0
11:17:33,528495.0,0.0,0.0
11:17:33,528863.0,0.0,0.0
11:17:33,528628.0,0.0,0.0
11:17:33,528670.0,0.0,0.0
11:17:33,528854.0,0.0,0.0
11:17:33,528941.0,0.0,0.0
11:17:33,529061.0,0.0,0.0
11:17:33,528218.0,0.0,0.0
11:17:33,528206.0,0.0,0.0
11:17:33,528608.0,0.0,0.0
11:17:33,528539.0,0.0,0.0
11:17:33,529144.0,0.0,0.0
11:17:33,529255.0,0.0,0.0
11:17:33,529016.0,0.0,0.0
11:17:33,528851.0,0.0,0.0
11:17:33,528508.0,0.0,0.0
11:17:33,528837.0,0.0,0.0
11:17:33,528783.0,0.0,0.0
11:17:33,528717.0,0.0,0.0
11:17:33,528725.0,0.0,0.0
11:17:33,528225.0,0.0,0.0
11:17:33,528694.0,0.0,0.0
11:17:33,528663.0,0.0,0.0
11:17:33,528789.0,0.0,0.0
11:17:33,528889.0,0.0,0.0
11:17:33,528641.0,0.0,0.0
11:17:33,528958.0,0.0,0.0
11:17:33,528743.0,0.0,0.0
11:17:33,528913.0,0.0,0.0
11:17:33,528911.0,0.0,0.0
11:17:33,528719.0,0.0,0.0
11:17:33,528986.0,0.0,0.0
11:17:33,528743.0,0.0,0.0
11:17:33,528838.0,0.0,0.0
11:17:33,529002.0,0.0,0.0
11:17:33,528569.0,0.0,0.0
11:17:33,529058.0,0.0,0.0
11:17:33,528838.0,0.0,0.0
11:17:33,528983.0,0.0,0.0
11:17:33,528866.0,0.0,0.0
11:17:33,528721.0,0.0,0.0
11:17:33,528968.0,0.0,0.0
11:17:33,528737.0,0.0,0.0
11:17:34,528780.0,0.0,0.0
11:17:34,528890.0,0.0,0.0
11:17:34,528428.0,0.0,0.0
11:17:34,528836.0,0.0,0.0
11:17:34,528617.0,0.0,0.0
11:17:34,528730.0,0.0,0.0
11:17:34,528834.0,0.0,0.0
11:17:34,528398.0,0.0,0.0
11:17:34,528958.0,0.0,0.0
11:17:34,528669.0,0.0,0.0
11:17:34,528674.0,0.0,0.0
11:17:34,528738.0,0.0,0.0
11:17:34,528421.0,0.0,0.0
11:17:34,528897.0,0.0,0.0
11:17:34,528618.0,0.0,0.0
11:17:34,528523.0,0.0,0.0
11:17:34,528780.0,0.0,0.0
11:17:34,528235.0,0.0,0.0
11:17:34,528871.0,0.0,0.0
11:17:34,528298.0,0.0,0.0
11:17:34,528329.0,0.0,0.0
11:17:34,528382.0,0.0,0.0
11:17:34,528110.0,0.0,0.0
11:17:34,528460.0,0.0,0.0
11:17:34,528109.0,0.0,0.0
11:17:34,527882.0,0.0,0.0
11:17:34,528077.0,0.0,0.0
11:17:34,527790.0,0.0,0.0
11:17:34,528311.0,0.0,0.0
11:17:34,528071.0,0.0,0.0
11:17:34,528197.0,0.0,0.0
11:17:34,528456.0,0.0,0.0
11:17:34,528154.0,0.0,0.0
11:17:34,528444.0,0.0,0.0
11:17:34,528032.0,0.0,0.0
11:17:34,528128.0,0.0,0.0
11:17:34,528223.0,0.0,0.0
11:17:34,528008.0,0.0,0.0
11:17:34,528401.0,0.0,0.0
11:17:34,528281.0,0.0,0.0
11:17:34,528216.0,0.0,0.0
11:17:34,528449.0,0.0,0.0
11:17:34,528075.0,0.0,0.0
11:17:34,528558.0,0.0,0.0
11:17:34,528180.0,0.0,0.0
11:17:34,528445.0,0.0,0.0
11:17:34,528589.0,0.0,0.0
11:17:34,528294.0,0.0,0.0
11:17:34,528539.0,0.0,0.0
11:17:34,528423.0,0.0,0.0
11:17:34,528555.0,0.0,0.0
11:17:34,528523.0,0.0,0.0
11:17:34,528144.0,0.0,0.0
11:17:34,528486.0,0.0,0.0
11:17:34,528228.0,0.0,0.0
11:17:34,528347.0,0.0,0.0
11:17:34,528446.0,0.0,0.0
11:17:34,528213.0,0.0,0.0
11:17:34,528510.0,0.0,0.0
11:17:34,528155.0,0.0,0.0
11:17:34,528319.0,0.0,0.0
11:17:34,528396.0,0.0,0.0
11:17:34,528196.0,0.0,0.0
11:17:34,528421.0,0.0,0.0
11:17:34,528143.0,0.0,0.0
11:17:34,528150.0,0.0,0.0
11:17:34,528303.0,0.0,0.0
11:17:34,527911.0,0.0,0.0
11:17:34,528374.0,0.0,0.0
11:17:34,527994.0,0.0,0.0
11:17:34,528155.0,0.0,0.0
11:17:34,528173.0,0.0,0.0
11:17:34,528009.0,0.0,0.0
11:17:34,528260.0,0.0,0.0
11:17:34,527988.0,0.0,0.0
11:17:34,528152.0,0.0,0.0
11:17:34,528224.0,0.0,0.0
11:17:34,527949.0,0.0,0.0
11:17:34,528254.0,0.0,0.0
11:17:34,528035.0,0.0,0.0
11:17:34,528136.0,0.0,0.0
11:17:34,528168.0,0.0,0.0
11:17:34,527934.0,0.0,0.0
11:17:34,528276.0,0.0,0.0
11:17:34,528030.0,0.0,0.0
11:17:34,528139.0,0.0,0.0
11:17:34,528138.0,0.0,0.0
11:17:34,527943.0,0.0,0.0
11:17:34,528170.0,0.0,0.0
11:17:34,527916.0,0.0,0.0
11:17:34,528001.0,0.0,0.0
11:17:34,528243.0,0.0,0.0
11:17:34,527859.0,0.0,0.0
11:17:34,528234.0,0.0,0.0
11:17:34,527994.0,0.0,0.0
11:17:34,528211.0,0.0,0.0
11:17:34,528173.0,0.0,0.0
11:17:34,528019.0,0.0,0.0
11:17:34,528256.0,0.0,0.0
11:17:34,528041.0,0.0,0.0
11:17:34,528073.0,0.0,0.0
11:17:34,528106.0,0.0,0.0
11:17:34,527921.0,0.0,0.0
11:17:34,528299.0,0.0,0.0
11:17:34,528041.0,0.0,0.0
11:17:34,528023.0,0.0,0.0
11:17:34,528111.0,0.0,0.0
11:17:34,527902.0,0.0,0.0
11:17:34,528291.0,0.0,0.0
11:17:34,528057.0,0.0,0.0
11:17:34,528315.0,0.0,0.0
11:17:34,528464.0,0.0,0.0
11:17:34,528384.0,0.0,0.0
11:17:34,528648.0,0.0,0.0
11:17:34,528333.0,0.0,0.0
11:17:34,528187.0,0.0,0.0
11:17:34,528303.0,0.0,0.0
11:17:34,527976.0,0.0,0.0
11:17:34,528583.0,0.0,0.0
11:17:34,528378.0,0.0,0.0
11:17:34,528623.0,0.0,0.0
11:17:34,528583.0,0.0,0.0
11:17:34,528389.0,0.0,0.0
11:17:34,528634.0,0.0,0.0
11:17:34,528329.0,0.0,0.0
11:17:34,528360.0,0.0,0.0
11:17:35,528509.0,0.0,0.0
11:17:35,528176.0,0.0,0.0
11:17:35,528415.0,0.0,0.0
11:17:35,528178.0,0.0,0.0
11:17:35,528281.0,0.0,0.0
11:17:35,528432.0,0.0,0.0
11:17:35,528068.0,0.0,0.0
11:17:35,528451.0,0.0,0.0
11:17:35,528149.0,0.0,0.0
11:17:35,528324.0,0.0,0.0
11:17:35,528315.0,0.0,0.0
11:17:35,528133.0,0.0,0.0
11:17:35,528379.0,0.0,0.0
11:17:35,528205.0,0.0,0.0
11:17:35,528205.0,0.0,0.0
11:17:35,528316.0,0.0,0.0
11:17:35,527978.0,0.0,0.0
11:17:35,528379.0,0.0,0.0
11:17:35,527973.0,0.0,0.0
11:17:35,528187.0,0.0,0.0
11:17:35,528276.0,0.0,0.0
11:17:35,527974.0,0.0,0.0
11:17:35,528220.0,0.0,0.0
11:17:35,528054.0,0.0,0.0
11:17:35,528144.0,0.0,0.0
11:17:35,528198.0,0.0,0.0
11:17:35,527932.0,0.0,0.0
11:17:35,528301.0,0.0,0.0
11:17:35,528088.0,0.0,0.0
11:17:35,528149.0,0.0,0.0
11:17:35,528205.0,0.0,0.0
11:17:35,527937.0,0.0,0.0
11:17:35,528389.0,0.0,0.0
11:17:35,528020.0,0.0,0.0
11:17:35,528135.0,0.0,0.0
11:17:35,528145.0,0.0,0.0
11:17:35,527979.0,0.0,0.0
11:17:35,528157.0,0.0,0.0
11:17:35,527918.0,0.0,0.0
11:17:35,527985.0,0.0,0.0
11:17:35,528316.0,0.0,0.0
11:17:35,527912.0,0.0,0.0
11:17:35,528508.0,0.0,0.0
11:17:35,528209.0,0.0,0.0
11:17:35,528503.0,0.0,0.0
11:17:35,528721.0,0.0,0.0
11:17:35,528459.0,0.0,0.0
11:17:35,529146.0,0.0,0.0
11:17:35,528961.0,0.0,0.0
11:17:35,529064.0,0.0,0.0
11:17:35,529258.0,0.0,0.0
11:17:35,529008.0,0.0,0.0
11:17:35,529522.0,0.0,0.0
11:17:35,529129.0,0.0,0.0
11:17:35,529275.0,0.0,0.0
11:17:35,529573.0,0.0,0.0
11:17:35,529168.0,0.0,0.0
11:17:35,529661.0,0.0,0.0
11:17:35,529325.0,0.0,0.0
11:17:35,529469.0,0.0,0.0
11:17:35,529476.0,0.0,0.0
11:17:35,529308.0,0.0,0.0
11:17:35,529716.0,0.0,0.0
11:17:35,529464.0,0.0,0.0
11:17:35,529552.0,0.0,0.0
11:17:35,529843.0,0.0,0.0
11:17:35,529423.0,0.0,0.0
11:17:35,529950.0,0.0,0.0
11:17:35,529629.0,0.0,0.0
11:17:35,529769.0,0.0,0.0
11:17:35,530029.0,0.0,0.0
11:17:35,529806.0,0.0,0.0
11:17:35,529976.0,0.0,0.0
11:17:35,529713.0,0.0,0.0
11:17:35,529826.0,0.0,0.0
11:17:35,530037.0,0.0,0.0
11:17:35,529653.0,0.0,0.0
11:17:35,530041.0,0.0,0.0
11:17:35,529888.0,0.0,0.0
11:17:35,530086.0,0.0,0.0
11:17:35,530161.0,0.0,0.0
11:17:35,529686.0,0.0,0.0
11:17:35,529966.0,0.0,0.0
11:17:35,529676.0,0.0,0.0
11:17:35,529952.0,0.0,0.0
11:17:35,530211.0,0.0,0.0
11:17:35,530006.0,0.0,0.0
11:17:35,530331.0,0.0,0.0
11:17:35,530114.0,0.0,0.0
11:17:35,530175.0,0.0,0.0
11:17:35,530484.0,0.0,0.0
11:17:35,530248.0,0.0,0.0
11:17:35,530581.0,0.0,0.0
11:17:35,530239.0,0.0,0.0
11:17:35,530424.0,0.0,0.0
11:17:35,530557.0,0.0,0.0
11:17:35,530238.0,0.0,0.0
11:17:35,530617.0,0.0,0.0
11:17:35,530441.0,0.0,0.0
11:17:35,530566.0,0.0,0.0
11:17:35,530724.0,0.0,0.0
11:17:35,530562.0,0.0,0.0
11:17:35,530833.0,0.0,0.0
11:17:35,530426.0,0.0,0.0
11:17:35,530516.0,0.0,0.0
11:17:35,530765.0,0.0,0.0
11:17:35,530341.0,0.0,0.0
11:17:35,530746.0,0.0,0.0
11:17:35,530326.0,0.0,0.0
11:17:35,530411.0,0.0,0.0
11:17:35,530531.0,0.0,0.0
11:17:35,530441.0,0.0,0.0
11:17:35,531019.0,0.0,0.0
11:17:35,530926.0,0.0,0.0
11:17:35,530977.0,0.0,0.0
11:17:35,531176.0,0.0,0.0
11:17:35,530578.0,0.0,0.0
11:17:35,530834.0,0.0,0.0
11:17:35,530284.0,0.0,0.0
11:17:35,530541.0,0.0,0.0
11:17:35,530746.0,0.0,0.0
11:17:35,530607.0,0.0,0.0
11:17:35,530944.0,0.0,0.0
11:17:35,530638.0,0.0,0.0
11:17:35,530619.0,0.0,0.0
11:17:36,530726.0,0.0,0.0
11:17:36,530310.0,0.0,0.0
11:17:36,530540.0,0.0,0.0
11:17:36,530154.0,0.0,0.0
11:17:36,530173.0,0.0,0.0
11:17:36,530331.0,0.0,0.0
11:17:36,529888.0,0.0,0.0
11:17:36,530338.0,0.0,0.0
11:17:36,530035.0,0.0,0.0
11:17:36,530109.0,0.0,0.0
11:17:36,529583.0,0.0,0.0
11:17:36,528528.0,0.0,0.0
11:17:36,528361.0,0.0,0.0
11:17:36,527086.0,0.0,0.0
11:17:36,526591.0,0.0,0.0
11:17:36,527161.0,0.0,0.0
11:17:36,526759.0,0.0,0.0
11:17:36,527158.0,0.0,0.0
11:17:36,526796.0,0.0,0.0
11:17:36,526969.0,0.0,0.0
11:17:36,527059.0,0.0,0.0
11:17:36,526897.0,0.0,0.0
11:17:36,527106.0,0.0,0.0
11:17:36,526549.0,0.0,0.0
11:17:36,526470.0,0.0,0.0
11:17:36,526627.0,0.0,0.0
11:17:36,526376.0,0.0,0.0
11:17:36,526837.0,0.0,0.0
11:17:36,526592.0,0.0,0.0
11:17:36,526504.0,0.0,0.0
11:17:36,526431.0,0.0,0.0
11:17:36,525996.0,0.0,0.0
11:17:36,526193.0,0.0,0.0
11:17:36,525858.0,0.0,0.0
11:17:36,525952.0,0.0,0.0
11:17:36,526284.0,0.0,0.0
11:17:36,526186.0,0.0,0.0
11:17:36,526544.0,0.0,0.0
11:17:36,526226.0,0.0,0.0
11:17:36,526139.0,0.0,0.0
11:17:36,526296.0,0.0,0.0
11:17:36,526298.0,0.0,0.0
11:17:36,526760.0,0.0,0.0
11:17:36,526604.0,0.0,0.0
11:17:36,527024.0,0.0,0.0
11:17:36,527237.0,0.0,0.0
11:17:36,526844.0,0.0,0.0
11:17:36,527223.0,0.0,0.0
11:17:36,527177.0,0.0,0.0
11:17:36,527496.0,0.0,0.0
11:17:36,527801.0,0.0,0.0
11:17:36,527648.0,0.0,0.0
11:17:36,528091.0,0.0,0.0
11:17:36,527834.0,0.0,0.0
11:17:36,528110.0,0.0,0.0
11:17:36,528543.0,0.0,0.0
11:17:36,528340.0,0.0,0.0
11:17:36,529026.0,0.0,0.0
11:17:36,528893.0,0.0,0.0
11:17:36,529105.0,0.0,0.0
11:17:36,529079.0,0.0,0.0
11:17:36,528611.0,0.0,0.0
11:17:36,529129.0,0.0,0.0
11:17:36,528774.0,0.0,0.0
11:17:36,528705.0,0.0,0.0
11:17:36,528781.0,0.0,0.0
11:17:36,528234.0,0.0,0.0
11:17:36,528786.0,0.0,0.0
11:17:36,528473.0,0.0,0.0
11:17:36,528499.0,0.0,0.0
11:17:36,528664.0,0.0,0.0
11:17:36,528341.0,0.0,0.0
11:17:36,528769.0,0.0,0.0
11:17:36,528216.0,0.0,0.0
11:17:36,527971.0,0.0,0.0
11:17:36,528037.0,0.0,0.0
11:17:36,527439.0,0.0,0.0
11:17:36,527756.0,0.0,0.0
11:17:36,527323.0,0.0,0.0
11:17:36,527214.0,0.0,0.0
11:17:36,527116.0,0.0,0.0
11:17:36,526404.0,0.0,0.0
11:17:36,526709.0,0.0,0.0
11:17:36,525987.0,0.0,0.0
11:17:36,525839.0,0.0,0.0
11:17:36,525878.0,0.0,0.0
11:17:36,525403.0,0.0,0.0
11:17:36,525693.0,0.0,0.0
11:17:36,525462.0,0.0,0.0
11:17:36,525256.0,0.0,0.0
11:17:36,525346.0,0.0,0.0
11:17:36,524904.0,0.0,0.0
11:17:36,525476.0,0.0,0.0
11:17:36,524973.0,0.0,0.0
11:17:36,524997.0,0.0,0.0
11:17:36,525178.0,0.0,0.0
11:17:36,524938.0,0.0,0.0
11:17:36,525906.0,0.0,0.0
11:17:36,525058.0,0.0,0.0
11:17:36,524571.0,0.0,0.0
11:17:36,524774.0,0.0,0.0
11:17:36,524481.0,0.0,0.0
11:17:36,525372.0,0.0,0.0
11:17:36,525358.0,0.0,0.0
11:17:36,525334.0,0.0,0.0
11:17:36,525175.0,0.0,0.0
11:17:36,525156.0,0.0,0.0
11:17:36,525790.0,0.0,0.0
11:17:36,525472.0,0.0,0.0
11:17:36,525944.0,0.0,0.0
11:17:36,526509.0,0.0,0.0
11:17:36,526669.0,0.0,0.0
11:17:36,527443.0,0.0,0.0
11:17:36,527701.0,0.0,0.0
