TimeStramp,ECG,SpO2,Respiration
13:58:00,501628.0,0.0,0.0
13:58:00,501634.0,0.0,0.0
13:58:00,501626.0,0.0,0.0
13:58:00,501639.0,0.0,0.0
13:58:00,501694.0,0.0,0.0
13:58:00,501669.0,0.0,0.0
13:58:00,501649.0,0.0,0.0
13:58:00,501676.0,0.0,0.0
13:58:00,501730.0,0.0,0.0
13:58:00,501716.0,0.0,0.0
13:58:00,501673.0,0.0,0.0
13:58:00,501671.0,0.0,0.0
13:58:00,501665.0,0.0,0.0
13:58:00,501708.0,0.0,0.0
13:58:00,501723.0,0.0,0.0
13:58:00,501693.0,0.0,0.0
13:58:00,501703.0,0.0,0.0
13:58:00,501699.0,0.0,0.0
13:58:00,501729.0,0.0,0.0
13:58:00,501782.0,0.0,0.0
13:58:00,501745.0,0.0,0.0
13:58:00,501731.0,0.0,0.0
13:58:00,501739.0,0.0,0.0
13:58:00,501766.0,0.0,0.0
13:58:00,501811.0,0.0,0.0
13:58:00,501837.0,0.0,0.0
13:58:00,501817.0,0.0,0.0
13:58:00,501837.0,0.0,0.0
13:58:00,501833.0,0.0,0.0
13:58:00,501862.0,0.0,0.0
13:58:00,501871.0,0.0,0.0
13:58:00,501868.0,0.0,0.0
13:58:00,501885.0,0.0,0.0
13:58:00,501849.0,0.0,0.0
13:58:00,501837.0,0.0,0.0
13:58:00,501788.0,0.0,0.0
13:58:00,501835.0,0.0,0.0
13:58:00,501947.0,0.0,0.0
13:58:00,502022.0,0.0,0.0
13:58:00,502080.0,0.0,0.0
13:58:00,501998.0,0.0,0.0
13:58:00,501890.0,0.0,0.0
13:58:00,501843.0,0.0,0.0
13:58:00,501838.0,0.0,0.0
13:58:00,501889.0,0.0,0.0
13:58:00,501904.0,0.0,0.0
13:58:00,501922.0,0.0,0.0
13:58:00,501943.0,0.0,0.0
13:58:00,501906.0,0.0,0.0
13:58:00,501928.0,0.0,0.0
13:58:00,501929.0,0.0,0.0
13:58:00,501911.0,0.0,0.0
13:58:00,501930.0,0.0,0.0
13:58:00,501896.0,0.0,0.0
13:58:00,501848.0,0.0,0.0
13:58:00,501800.0,0.0,0.0
13:58:00,501835.0,0.0,0.0
13:58:00,501832.0,0.0,0.0
13:58:00,501788.0,0.0,0.0
13:58:00,501775.0,0.0,0.0
13:58:00,501771.0,0.0,0.0
13:58:00,501739.0,0.0,0.0
13:58:00,501749.0,0.0,0.0
13:58:00,501714.0,0.0,0.0
13:58:00,501692.0,0.0,0.0
13:58:00,501649.0,0.0,0.0
13:58:00,501666.0,0.0,0.0
13:58:00,501698.0,0.0,0.0
13:58:00,501690.0,0.0,0.0
13:58:00,501703.0,0.0,0.0
13:58:00,501658.0,0.0,0.0
13:58:00,501646.0,0.0,0.0
13:58:00,501674.0,0.0,0.0
13:58:00,501647.0,0.0,0.0
13:58:00,501646.0,0.0,0.0
13:58:00,501570.0,0.0,0.0
13:58:00,501571.0,0.0,0.0
13:58:00,501571.0,0.0,0.0
13:58:00,501566.0,0.0,0.0
13:58:00,501591.0,0.0,0.0
13:58:00,501556.0,0.0,0.0
13:58:00,501522.0,0.0,0.0
13:58:00,501554.0,0.0,0.0
13:58:00,501551.0,0.0,0.0
13:58:00,501553.0,0.0,0.0
13:58:00,501527.0,0.0,0.0
13:58:00,501505.0,0.0,0.0
13:58:00,501474.0,0.0,0.0
13:58:00,501452.0,0.0,0.0
13:58:00,501459.0,0.0,0.0
13:58:00,501455.0,0.0,0.0
13:58:00,501435.0,0.0,0.0
13:58:00,501429.0,0.0,0.0
13:58:00,501403.0,0.0,0.0
13:58:00,501404.0,0.0,0.0
13:58:00,501373.0,0.0,0.0
13:58:00,501388.0,0.0,0.0
13:58:00,501336.0,0.0,0.0
13:58:00,501348.0,0.0,0.0
13:58:00,501379.0,0.0,0.0
13:58:00,501378.0,0.0,0.0
13:58:00,501338.0,0.0,0.0
13:58:00,501368.0,0.0,0.0
13:58:00,501323.0,0.0,0.0
13:58:00,501341.0,0.0,0.0
13:58:00,501337.0,0.0,0.0
13:58:00,501337.0,0.0,0.0
13:58:00,501309.0,0.0,0.0
13:58:00,501289.0,0.0,0.0
13:58:00,501309.0,0.0,0.0
13:58:00,501308.0,0.0,0.0
13:58:00,501249.0,0.0,0.0
13:58:00,501231.0,0.0,0.0
13:58:00,501184.0,0.0,0.0
13:58:00,501299.0,0.0,0.0
13:58:00,501386.0,0.0,0.0
13:58:00,501466.0,0.0,0.0
13:58:00,501393.0,0.0,0.0
13:58:00,501180.0,0.0,0.0
13:58:00,501134.0,0.0,0.0
13:58:00,501137.0,0.0,0.0
13:58:00,501177.0,0.0,0.0
13:58:00,501198.0,0.0,0.0
13:58:00,501147.0,0.0,0.0
13:58:00,501124.0,0.0,0.0
13:58:01,501096.0,0.0,0.0
13:58:01,501120.0,0.0,0.0
13:58:01,501108.0,0.0,0.0
13:58:01,501096.0,0.0,0.0
13:58:01,501098.0,0.0,0.0
13:58:01,501060.0,0.0,0.0
13:58:01,501038.0,0.0,0.0
13:58:01,501055.0,0.0,0.0
13:58:01,501015.0,0.0,0.0
13:58:01,500974.0,0.0,0.0
13:58:01,500929.0,0.0,0.0
13:58:01,500943.0,0.0,0.0
13:58:01,500925.0,0.0,0.0
13:58:01,500919.0,0.0,0.0
13:58:01,500934.0,0.0,0.0
13:58:01,500875.0,0.0,0.0
13:58:01,500853.0,0.0,0.0
13:58:01,500854.0,0.0,0.0
13:58:01,500861.0,0.0,0.0
13:58:01,500855.0,0.0,0.0
13:58:01,500823.0,0.0,0.0
13:58:01,500816.0,0.0,0.0
13:58:01,500798.0,0.0,0.0
13:58:01,500808.0,0.0,0.0
13:58:01,500829.0,0.0,0.0
13:58:01,500829.0,0.0,0.0
13:58:01,500797.0,0.0,0.0
13:58:01,500804.0,0.0,0.0
13:58:01,500763.0,0.0,0.0
13:58:01,500810.0,0.0,0.0
13:58:01,500806.0,0.0,0.0
13:58:01,500748.0,0.0,0.0
13:58:01,500723.0,0.0,0.0
13:58:01,500734.0,0.0,0.0
13:58:01,500803.0,0.0,0.0
13:58:01,500799.0,0.0,0.0
13:58:01,500787.0,0.0,0.0
13:58:01,500799.0,0.0,0.0
13:58:01,500780.0,0.0,0.0
13:58:01,500784.0,0.0,0.0
13:58:01,500783.0,0.0,0.0
13:58:01,500775.0,0.0,0.0
13:58:01,500779.0,0.0,0.0
13:58:01,500783.0,0.0,0.0
13:58:01,500774.0,0.0,0.0
13:58:01,500766.0,0.0,0.0
13:58:01,500767.0,0.0,0.0
13:58:01,500782.0,0.0,0.0
13:58:01,500761.0,0.0,0.0
13:58:01,500776.0,0.0,0.0
13:58:01,500730.0,0.0,0.0
13:58:01,500751.0,0.0,0.0
13:58:01,500769.0,0.0,0.0
13:58:01,500753.0,0.0,0.0
13:58:01,500743.0,0.0,0.0
13:58:01,500756.0,0.0,0.0
13:58:01,500759.0,0.0,0.0
13:58:01,500762.0,0.0,0.0
13:58:01,500726.0,0.0,0.0
13:58:01,500707.0,0.0,0.0
13:58:01,500683.0,0.0,0.0
13:58:01,500719.0,0.0,0.0
13:58:01,500729.0,0.0,0.0
13:58:01,500689.0,0.0,0.0
13:58:01,500658.0,0.0,0.0
13:58:01,500578.0,0.0,0.0
13:58:01,500573.0,0.0,0.0
13:58:01,500707.0,0.0,0.0
13:58:01,500799.0,0.0,0.0
13:58:01,500909.0,0.0,0.0
13:58:01,500825.0,0.0,0.0
13:58:01,500628.0,0.0,0.0
13:58:01,500562.0,0.0,0.0
13:58:01,500596.0,0.0,0.0
13:58:01,500608.0,0.0,0.0
13:58:01,500581.0,0.0,0.0
13:58:01,500606.0,0.0,0.0
13:58:01,500596.0,0.0,0.0
13:58:01,500582.0,0.0,0.0
13:58:01,500583.0,0.0,0.0
13:58:01,500571.0,0.0,0.0
13:58:01,500558.0,0.0,0.0
13:58:01,500508.0,0.0,0.0
13:58:01,500504.0,0.0,0.0
13:58:01,500506.0,0.0,0.0
13:58:01,500459.0,0.0,0.0
13:58:01,500458.0,0.0,0.0
13:58:01,500409.0,0.0,0.0
13:58:01,500365.0,0.0,0.0
13:58:01,500360.0,0.0,0.0
13:58:01,500343.0,0.0,0.0
13:58:01,500299.0,0.0,0.0
13:58:01,500323.0,0.0,0.0
13:58:01,500344.0,0.0,0.0
13:58:01,500344.0,0.0,0.0
13:58:01,500326.0,0.0,0.0
13:58:01,500297.0,0.0,0.0
13:58:01,500277.0,0.0,0.0
13:58:01,500279.0,0.0,0.0
13:58:01,500279.0,0.0,0.0
13:58:01,500240.0,0.0,0.0
13:58:01,500214.0,0.0,0.0
13:58:01,500221.0,0.0,0.0
13:58:01,500196.0,0.0,0.0
13:58:01,500226.0,0.0,0.0
13:58:01,500219.0,0.0,0.0
13:58:01,500208.0,0.0,0.0
13:58:01,500189.0,0.0,0.0
13:58:01,500183.0,0.0,0.0
13:58:01,500193.0,0.0,0.0
13:58:01,500200.0,0.0,0.0
13:58:01,500170.0,0.0,0.0
13:58:01,500159.0,0.0,0.0
13:58:01,500119.0,0.0,0.0
13:58:01,500159.0,0.0,0.0
13:58:01,500141.0,0.0,0.0
13:58:01,500145.0,0.0,0.0
13:58:01,500166.0,0.0,0.0
13:58:01,500124.0,0.0,0.0
13:58:01,500091.0,0.0,0.0
13:58:01,500054.0,0.0,0.0
13:58:01,500107.0,0.0,0.0
13:58:01,500086.0,0.0,0.0
13:58:01,500050.0,0.0,0.0
13:58:01,500061.0,0.0,0.0
13:58:02,500050.0,0.0,0.0
13:58:02,500044.0,0.0,0.0
13:58:02,500067.0,0.0,0.0
13:58:02,500001.0,0.0,0.0
13:58:02,500004.0,0.0,0.0
13:58:02,499981.0,0.0,0.0
13:58:02,499981.0,0.0,0.0
13:58:02,500021.0,0.0,0.0
13:58:02,499989.0,0.0,0.0
13:58:02,499986.0,0.0,0.0
13:58:02,499983.0,0.0,0.0
13:58:02,499981.0,0.0,0.0
13:58:02,499986.0,0.0,0.0
13:58:02,499969.0,0.0,0.0
13:58:02,499938.0,0.0,0.0
13:58:02,499929.0,0.0,0.0
13:58:02,499921.0,0.0,0.0
13:58:02,499924.0,0.0,0.0
13:58:02,499913.0,0.0,0.0
13:58:02,499899.0,0.0,0.0
13:58:02,499873.0,0.0,0.0
13:58:02,499854.0,0.0,0.0
13:58:02,499813.0,0.0,0.0
13:58:02,499740.0,0.0,0.0
13:58:02,499783.0,0.0,0.0
13:58:02,499866.0,0.0,0.0
13:58:02,499971.0,0.0,0.0
13:58:02,500049.0,0.0,0.0
13:58:02,499877.0,0.0,0.0
13:58:02,499698.0,0.0,0.0
13:58:02,499609.0,0.0,0.0
13:58:02,499626.0,0.0,0.0
13:58:02,499653.0,0.0,0.0
13:58:02,499665.0,0.0,0.0
13:58:02,499680.0,0.0,0.0
13:58:02,499629.0,0.0,0.0
13:58:02,499583.0,0.0,0.0
13:58:02,499608.0,0.0,0.0
13:58:02,499566.0,0.0,0.0
13:58:02,499553.0,0.0,0.0
13:58:02,499541.0,0.0,0.0
13:58:02,499548.0,0.0,0.0
13:58:02,499523.0,0.0,0.0
13:58:02,499484.0,0.0,0.0
13:58:02,499498.0,0.0,0.0
13:58:02,499470.0,0.0,0.0
13:58:02,499429.0,0.0,0.0
13:58:02,499389.0,0.0,0.0
13:58:02,499351.0,0.0,0.0
13:58:02,499363.0,0.0,0.0
13:58:02,499361.0,0.0,0.0
13:58:02,499296.0,0.0,0.0
13:58:02,499291.0,0.0,0.0
13:58:02,499267.0,0.0,0.0
13:58:02,499279.0,0.0,0.0
13:58:02,499279.0,0.0,0.0
13:58:02,499260.0,0.0,0.0
13:58:02,499246.0,0.0,0.0
13:58:02,499238.0,0.0,0.0
13:58:02,499258.0,0.0,0.0
13:58:02,499259.0,0.0,0.0
13:58:02,499251.0,0.0,0.0
13:58:02,499258.0,0.0,0.0
13:58:02,499217.0,0.0,0.0
13:58:02,499235.0,0.0,0.0
13:58:02,499237.0,0.0,0.0
13:58:02,499244.0,0.0,0.0
13:58:02,499233.0,0.0,0.0
13:58:02,499239.0,0.0,0.0
13:58:02,499236.0,0.0,0.0
13:58:02,499258.0,0.0,0.0
13:58:02,499253.0,0.0,0.0
13:58:02,499236.0,0.0,0.0
13:58:02,499221.0,0.0,0.0
13:58:02,499229.0,0.0,0.0
13:58:02,499216.0,0.0,0.0
13:58:02,499251.0,0.0,0.0
13:58:02,499230.0,0.0,0.0
13:58:02,499219.0,0.0,0.0
13:58:02,499228.0,0.0,0.0
13:58:02,499241.0,0.0,0.0
13:58:02,499275.0,0.0,0.0
13:58:02,499293.0,0.0,0.0
13:58:02,499248.0,0.0,0.0
13:58:02,499238.0,0.0,0.0
13:58:02,499248.0,0.0,0.0
13:58:02,499227.0,0.0,0.0
13:58:02,499261.0,0.0,0.0
13:58:02,499246.0,0.0,0.0
13:58:02,499253.0,0.0,0.0
13:58:02,499218.0,0.0,0.0
13:58:02,499239.0,0.0,0.0
13:58:02,499246.0,0.0,0.0
13:58:02,499246.0,0.0,0.0
13:58:02,499266.0,0.0,0.0
13:58:02,499228.0,0.0,0.0
13:58:02,499202.0,0.0,0.0
13:58:02,499211.0,0.0,0.0
13:58:02,499208.0,0.0,0.0
13:58:02,499216.0,0.0,0.0
13:58:02,499191.0,0.0,0.0
13:58:02,499186.0,0.0,0.0
13:58:02,499184.0,0.0,0.0
13:58:02,499161.0,0.0,0.0
13:58:02,499140.0,0.0,0.0
13:58:02,499104.0,0.0,0.0
13:58:02,499058.0,0.0,0.0
13:58:02,499058.0,0.0,0.0
13:58:02,499074.0,0.0,0.0
13:58:02,499071.0,0.0,0.0
13:58:02,499005.0,0.0,0.0
13:58:02,498958.0,0.0,0.0
13:58:02,499062.0,0.0,0.0
13:58:02,499199.0,0.0,0.0
13:58:02,499351.0,0.0,0.0
13:58:02,499359.0,0.0,0.0
13:58:02,499103.0,0.0,0.0
13:58:02,498988.0,0.0,0.0
13:58:02,499001.0,0.0,0.0
13:58:02,499063.0,0.0,0.0
13:58:02,499049.0,0.0,0.0
13:58:02,499033.0,0.0,0.0
13:58:02,499081.0,0.0,0.0
13:58:02,499083.0,0.0,0.0
13:58:02,499098.0,0.0,0.0
13:58:03,499099.0,0.0,0.0
13:58:03,499109.0,0.0,0.0
13:58:03,499093.0,0.0,0.0
13:58:03,499081.0,0.0,0.0
13:58:03,499091.0,0.0,0.0
13:58:03,499091.0,0.0,0.0
13:58:03,499066.0,0.0,0.0
13:58:03,499046.0,0.0,0.0
13:58:03,499012.0,0.0,0.0
13:58:03,499001.0,0.0,0.0
13:58:03,499017.0,0.0,0.0
13:58:03,498995.0,0.0,0.0
13:58:03,499002.0,0.0,0.0
13:58:03,498979.0,0.0,0.0
13:58:03,499039.0,0.0,0.0
13:58:03,499054.0,0.0,0.0
13:58:03,499041.0,0.0,0.0
13:58:03,499063.0,0.0,0.0
13:58:03,499041.0,0.0,0.0
13:58:03,499058.0,0.0,0.0
13:58:03,499088.0,0.0,0.0
13:58:03,499153.0,0.0,0.0
13:58:03,499219.0,0.0,0.0
13:58:03,499206.0,0.0,0.0
13:58:03,499236.0,0.0,0.0
13:58:03,499251.0,0.0,0.0
13:58:03,499251.0,0.0,0.0
13:58:03,499300.0,0.0,0.0
13:58:03,499304.0,0.0,0.0
13:58:03,499324.0,0.0,0.0
13:58:03,499323.0,0.0,0.0
13:58:03,499370.0,0.0,0.0
13:58:03,499427.0,0.0,0.0
13:58:03,499430.0,0.0,0.0
13:58:03,499454.0,0.0,0.0
13:58:03,499487.0,0.0,0.0
13:58:03,499491.0,0.0,0.0
13:58:03,499516.0,0.0,0.0
13:58:03,499542.0,0.0,0.0
13:58:03,499576.0,0.0,0.0
13:58:03,499584.0,0.0,0.0
13:58:03,499627.0,0.0,0.0
13:58:03,499674.0,0.0,0.0
13:58:03,499723.0,0.0,0.0
13:58:03,499743.0,0.0,0.0
13:58:03,499766.0,0.0,0.0
13:58:03,499789.0,0.0,0.0
13:58:03,499848.0,0.0,0.0
13:58:03,499828.0,0.0,0.0
13:58:03,499893.0,0.0,0.0
13:58:03,499916.0,0.0,0.0
13:58:03,499901.0,0.0,0.0
13:58:03,499923.0,0.0,0.0
13:58:03,499997.0,0.0,0.0
13:58:03,500021.0,0.0,0.0
13:58:03,500053.0,0.0,0.0
13:58:03,500069.0,0.0,0.0
13:58:03,500056.0,0.0,0.0
13:58:03,500067.0,0.0,0.0
13:58:03,500119.0,0.0,0.0
13:58:03,500127.0,0.0,0.0
13:58:03,500138.0,0.0,0.0
13:58:03,500179.0,0.0,0.0
13:58:03,500168.0,0.0,0.0
13:58:03,500206.0,0.0,0.0
13:58:03,500201.0,0.0,0.0
13:58:03,500231.0,0.0,0.0
13:58:03,500218.0,0.0,0.0
13:58:03,500233.0,0.0,0.0
13:58:03,500260.0,0.0,0.0
13:58:03,500269.0,0.0,0.0
13:58:03,500229.0,0.0,0.0
13:58:03,500198.0,0.0,0.0
13:58:03,500264.0,0.0,0.0
13:58:03,500406.0,0.0,0.0
13:58:03,500566.0,0.0,0.0
13:58:03,500551.0,0.0,0.0
13:58:03,500429.0,0.0,0.0
13:58:03,500339.0,0.0,0.0
13:58:03,500371.0,0.0,0.0
13:58:03,500434.0,0.0,0.0
13:58:03,500480.0,0.0,0.0
13:58:03,500456.0,0.0,0.0
13:58:03,500464.0,0.0,0.0
13:58:03,500520.0,0.0,0.0
13:58:03,500551.0,0.0,0.0
13:58:03,500613.0,0.0,0.0
13:58:03,500627.0,0.0,0.0
13:58:03,500591.0,0.0,0.0
13:58:03,500617.0,0.0,0.0
13:58:03,500633.0,0.0,0.0
13:58:03,500644.0,0.0,0.0
13:58:03,500669.0,0.0,0.0
13:58:03,500638.0,0.0,0.0
13:58:03,500624.0,0.0,0.0
13:58:03,500597.0,0.0,0.0
13:58:03,500586.0,0.0,0.0
13:58:03,500615.0,0.0,0.0
13:58:03,500584.0,0.0,0.0
13:58:03,500574.0,0.0,0.0
13:58:03,500579.0,0.0,0.0
13:58:03,500649.0,0.0,0.0
13:58:03,500722.0,0.0,0.0
13:58:03,500766.0,0.0,0.0
13:58:03,500797.0,0.0,0.0
13:58:03,500791.0,0.0,0.0
13:58:03,500813.0,0.0,0.0
13:58:03,500898.0,0.0,0.0
13:58:03,500918.0,0.0,0.0
13:58:03,500926.0,0.0,0.0
13:58:03,500894.0,0.0,0.0
13:58:03,500968.0,0.0,0.0
13:58:03,501001.0,0.0,0.0
13:58:03,501042.0,0.0,0.0
13:58:03,501093.0,0.0,0.0
13:58:03,501094.0,0.0,0.0
13:58:03,501111.0,0.0,0.0
13:58:03,501142.0,0.0,0.0
13:58:03,501184.0,0.0,0.0
13:58:03,501202.0,0.0,0.0
13:58:03,501204.0,0.0,0.0
13:58:03,501247.0,0.0,0.0
13:58:03,501279.0,0.0,0.0
13:58:03,501259.0,0.0,0.0
13:58:03,501298.0,0.0,0.0
13:58:04,501268.0,0.0,0.0
13:58:04,501251.0,0.0,0.0
13:58:04,501264.0,0.0,0.0
13:58:04,501266.0,0.0,0.0
13:58:04,501344.0,0.0,0.0
13:58:04,501351.0,0.0,0.0
13:58:04,501350.0,0.0,0.0
13:58:04,501380.0,0.0,0.0
13:58:04,501404.0,0.0,0.0
13:58:04,501494.0,0.0,0.0
13:58:04,501482.0,0.0,0.0
13:58:04,501489.0,0.0,0.0
13:58:04,501534.0,0.0,0.0
13:58:04,501488.0,0.0,0.0
13:58:04,501534.0,0.0,0.0
13:58:04,501566.0,0.0,0.0
13:58:04,501596.0,0.0,0.0
13:58:04,501633.0,0.0,0.0
13:58:04,501644.0,0.0,0.0
13:58:04,501720.0,0.0,0.0
13:58:04,501786.0,0.0,0.0
13:58:04,501821.0,0.0,0.0
13:58:04,501823.0,0.0,0.0
13:58:04,501778.0,0.0,0.0
13:58:04,501824.0,0.0,0.0
13:58:04,501895.0,0.0,0.0
13:58:04,502049.0,0.0,0.0
13:58:04,502161.0,0.0,0.0
13:58:04,502143.0,0.0,0.0
13:58:04,502101.0,0.0,0.0
13:58:04,502067.0,0.0,0.0
13:58:04,502125.0,0.0,0.0
13:58:04,502243.0,0.0,0.0
13:58:04,502277.0,0.0,0.0
13:58:04,502338.0,0.0,0.0
13:58:04,502374.0,0.0,0.0
13:58:04,502403.0,0.0,0.0
13:58:04,502499.0,0.0,0.0
13:58:04,502529.0,0.0,0.0
13:58:04,502614.0,0.0,0.0
13:58:04,502636.0,0.0,0.0
13:58:04,502632.0,0.0,0.0
13:58:04,502694.0,0.0,0.0
13:58:04,502690.0,0.0,0.0
13:58:04,502758.0,0.0,0.0
13:58:04,502781.0,0.0,0.0
13:58:04,502794.0,0.0,0.0
13:58:04,502879.0,0.0,0.0
13:58:04,502855.0,0.0,0.0
13:58:04,502920.0,0.0,0.0
13:58:04,502935.0,0.0,0.0
13:58:04,502979.0,0.0,0.0
13:58:04,503051.0,0.0,0.0
13:58:04,503033.0,0.0,0.0
13:58:04,503132.0,0.0,0.0
13:58:04,503206.0,0.0,0.0
13:58:04,503248.0,0.0,0.0
13:58:04,503368.0,0.0,0.0
13:58:04,503418.0,0.0,0.0
13:58:04,503518.0,0.0,0.0
13:58:04,503569.0,0.0,0.0
13:58:04,503591.0,0.0,0.0
13:58:04,503728.0,0.0,0.0
13:58:04,503793.0,0.0,0.0
13:58:04,503918.0,0.0,0.0
13:58:04,503976.0,0.0,0.0
13:58:04,503997.0,0.0,0.0
13:58:04,504101.0,0.0,0.0
13:58:04,504108.0,0.0,0.0
13:58:04,504225.0,0.0,0.0
13:58:04,504243.0,0.0,0.0
13:58:04,504246.0,0.0,0.0
13:58:04,504372.0,0.0,0.0
13:58:04,504381.0,0.0,0.0
13:58:04,504486.0,0.0,0.0
13:58:04,504524.0,0.0,0.0
13:58:04,504518.0,0.0,0.0
13:58:04,504623.0,0.0,0.0
13:58:04,504583.0,0.0,0.0
13:58:04,504648.0,0.0,0.0
13:58:04,504672.0,0.0,0.0
13:58:04,504709.0,0.0,0.0
13:58:04,504786.0,0.0,0.0
13:58:04,504726.0,0.0,0.0
13:58:04,504847.0,0.0,0.0
13:58:04,504896.0,0.0,0.0
13:58:04,504906.0,0.0,0.0
13:58:04,504978.0,0.0,0.0
13:58:04,504963.0,0.0,0.0
13:58:04,505079.0,0.0,0.0
13:58:04,505121.0,0.0,0.0
13:58:04,505128.0,0.0,0.0
13:58:04,505258.0,0.0,0.0
13:58:04,505300.0,0.0,0.0
13:58:04,505414.0,0.0,0.0
13:58:04,505403.0,0.0,0.0
13:58:04,505419.0,0.0,0.0
13:58:04,505464.0,0.0,0.0
13:58:04,505356.0,0.0,0.0
13:58:04,505390.0,0.0,0.0
13:58:04,505433.0,0.0,0.0
13:58:04,505492.0,0.0,0.0
13:58:04,505550.0,0.0,0.0
13:58:04,505426.0,0.0,0.0
13:58:04,505389.0,0.0,0.0
13:58:04,505305.0,0.0,0.0
13:58:04,505289.0,0.0,0.0
13:58:04,505415.0,0.0,0.0
13:58:04,505379.0,0.0,0.0
13:58:04,505387.0,0.0,0.0
13:58:04,505356.0,0.0,0.0
13:58:04,505323.0,0.0,0.0
13:58:04,505388.0,0.0,0.0
13:58:04,505378.0,0.0,0.0
13:58:04,505413.0,0.0,0.0
13:58:04,505323.0,0.0,0.0
13:58:04,505251.0,0.0,0.0
13:58:04,505332.0,0.0,0.0
13:58:04,505200.0,0.0,0.0
13:58:04,505219.0,0.0,0.0
13:58:04,505138.0,0.0,0.0
13:58:04,505015.0,0.0,0.0
13:58:04,505018.0,0.0,0.0
13:58:04,504941.0,0.0,0.0
13:58:04,504963.0,0.0,0.0
13:58:05,504896.0,0.0,0.0
13:58:05,504857.0,0.0,0.0
13:58:05,504919.0,0.0,0.0
13:58:05,504830.0,0.0,0.0
13:58:05,504849.0,0.0,0.0
13:58:05,504836.0,0.0,0.0
13:58:05,504800.0,0.0,0.0
13:58:05,504781.0,0.0,0.0
13:58:05,504683.0,0.0,0.0
13:58:05,504712.0,0.0,0.0
13:58:05,504664.0,0.0,0.0
13:58:05,504588.0,0.0,0.0
13:58:05,504593.0,0.0,0.0
13:58:05,504503.0,0.0,0.0
13:58:05,504564.0,0.0,0.0
13:58:05,504564.0,0.0,0.0
13:58:05,504529.0,0.0,0.0
13:58:05,504551.0,0.0,0.0
13:58:05,504523.0,0.0,0.0
13:58:05,504518.0,0.0,0.0
13:58:05,504466.0,0.0,0.0
13:58:05,504478.0,0.0,0.0
13:58:05,504510.0,0.0,0.0
13:58:05,504468.0,0.0,0.0
13:58:05,504449.0,0.0,0.0
13:58:05,504421.0,0.0,0.0
13:58:05,504373.0,0.0,0.0
13:58:05,504363.0,0.0,0.0
13:58:05,504283.0,0.0,0.0
13:58:05,504294.0,0.0,0.0
13:58:05,504243.0,0.0,0.0
13:58:05,504232.0,0.0,0.0
13:58:05,504269.0,0.0,0.0
13:58:05,504218.0,0.0,0.0
13:58:05,504307.0,0.0,0.0
13:58:05,504285.0,0.0,0.0
13:58:05,504286.0,0.0,0.0
13:58:05,504351.0,0.0,0.0
13:58:05,504306.0,0.0,0.0
13:58:05,504341.0,0.0,0.0
13:58:05,504307.0,0.0,0.0
13:58:05,504278.0,0.0,0.0
13:58:05,504334.0,0.0,0.0
13:58:05,504307.0,0.0,0.0
13:58:05,504358.0,0.0,0.0
13:58:05,504312.0,0.0,0.0
13:58:05,504279.0,0.0,0.0
13:58:05,504338.0,0.0,0.0
13:58:05,504377.0,0.0,0.0
13:58:05,504497.0,0.0,0.0
13:58:05,504533.0,0.0,0.0
13:58:05,504423.0,0.0,0.0
13:58:05,504364.0,0.0,0.0
13:58:05,504252.0,0.0,0.0
13:58:05,504291.0,0.0,0.0
13:58:05,504289.0,0.0,0.0
13:58:05,504251.0,0.0,0.0
13:58:05,504273.0,0.0,0.0
13:58:05,504244.0,0.0,0.0
13:58:05,504291.0,0.0,0.0
13:58:05,504293.0,0.0,0.0
13:58:05,504223.0,0.0,0.0
13:58:05,504193.0,0.0,0.0
13:58:05,504147.0,0.0,0.0
13:58:05,504165.0,0.0,0.0
13:58:05,504149.0,0.0,0.0
13:58:05,504068.0,0.0,0.0
13:58:05,504046.0,0.0,0.0
13:58:05,504009.0,0.0,0.0
13:58:05,504020.0,0.0,0.0
13:58:05,504002.0,0.0,0.0
13:58:05,503929.0,0.0,0.0
13:58:05,503935.0,0.0,0.0
13:58:05,503908.0,0.0,0.0
13:58:05,503902.0,0.0,0.0
13:58:05,503874.0,0.0,0.0
13:58:05,503838.0,0.0,0.0
13:58:05,503844.0,0.0,0.0
13:58:05,503801.0,0.0,0.0
13:58:05,503841.0,0.0,0.0
13:58:05,503813.0,0.0,0.0
13:58:05,503818.0,0.0,0.0
13:58:05,503844.0,0.0,0.0
13:58:05,503766.0,0.0,0.0
13:58:05,503799.0,0.0,0.0
13:58:05,503749.0,0.0,0.0
13:58:05,503697.0,0.0,0.0
13:58:05,503750.0,0.0,0.0
13:58:05,503654.0,0.0,0.0
13:58:05,503693.0,0.0,0.0
13:58:05,503634.0,0.0,0.0
13:58:05,503592.0,0.0,0.0
13:58:05,503639.0,0.0,0.0
13:58:05,503505.0,0.0,0.0
13:58:05,503518.0,0.0,0.0
13:58:05,503496.0,0.0,0.0
13:58:05,503443.0,0.0,0.0
13:58:05,503461.0,0.0,0.0
13:58:05,503336.0,0.0,0.0
13:58:05,503306.0,0.0,0.0
13:58:05,503265.0,0.0,0.0
13:58:05,503193.0,0.0,0.0
13:58:05,503181.0,0.0,0.0
13:58:05,503091.0,0.0,0.0
13:58:05,503043.0,0.0,0.0
13:58:05,502925.0,0.0,0.0
13:58:05,502849.0,0.0,0.0
13:58:05,502856.0,0.0,0.0
13:58:05,502731.0,0.0,0.0
13:58:05,502683.0,0.0,0.0
13:58:05,502595.0,0.0,0.0
13:58:05,502532.0,0.0,0.0
13:58:05,502528.0,0.0,0.0
13:58:05,502463.0,0.0,0.0
13:58:05,502437.0,0.0,0.0
13:58:05,502379.0,0.0,0.0
13:58:05,502298.0,0.0,0.0
13:58:05,502259.0,0.0,0.0
13:58:05,502204.0,0.0,0.0
13:58:05,502175.0,0.0,0.0
13:58:05,502058.0,0.0,0.0
13:58:05,502011.0,0.0,0.0
13:58:05,502178.0,0.0,0.0
13:58:05,502233.0,0.0,0.0
13:58:05,502302.0,0.0,0.0
13:58:06,502113.0,0.0,0.0
13:58:06,501956.0,0.0,0.0
13:58:06,501978.0,0.0,0.0
13:58:06,501958.0,0.0,0.0
13:58:06,501966.0,0.0,0.0
13:58:06,501935.0,0.0,0.0
13:58:06,501914.0,0.0,0.0
13:58:06,501891.0,0.0,0.0
13:58:06,501837.0,0.0,0.0
13:58:06,501858.0,0.0,0.0
13:58:06,501865.0,0.0,0.0
13:58:06,501781.0,0.0,0.0
13:58:06,501787.0,0.0,0.0
13:58:06,501703.0,0.0,0.0
13:58:06,501669.0,0.0,0.0
13:58:06,501684.0,0.0,0.0
13:58:06,501611.0,0.0,0.0
13:58:06,501613.0,0.0,0.0
13:58:06,501559.0,0.0,0.0
13:58:06,501571.0,0.0,0.0
13:58:06,501569.0,0.0,0.0
13:58:06,501532.0,0.0,0.0
13:58:06,501573.0,0.0,0.0
13:58:06,501443.0,0.0,0.0
13:58:06,501463.0,0.0,0.0
13:58:06,501429.0,0.0,0.0
13:58:06,501402.0,0.0,0.0
13:58:06,501476.0,0.0,0.0
13:58:06,501346.0,0.0,0.0
13:58:06,501387.0,0.0,0.0
13:58:06,501401.0,0.0,0.0
13:58:06,501320.0,0.0,0.0
13:58:06,501366.0,0.0,0.0
13:58:06,501303.0,0.0,0.0
13:58:06,501301.0,0.0,0.0
13:58:06,501228.0,0.0,0.0
13:58:06,501178.0,0.0,0.0
13:58:06,501184.0,0.0,0.0
13:58:06,501105.0,0.0,0.0
13:58:06,501109.0,0.0,0.0
13:58:06,501093.0,0.0,0.0
13:58:06,500989.0,0.0,0.0
13:58:06,501039.0,0.0,0.0
13:58:06,500995.0,0.0,0.0
13:58:06,500990.0,0.0,0.0
13:58:06,500911.0,0.0,0.0
13:58:06,500878.0,0.0,0.0
13:58:06,500884.0,0.0,0.0
13:58:06,500809.0,0.0,0.0
13:58:06,500807.0,0.0,0.0
13:58:06,500794.0,0.0,0.0
13:58:06,500721.0,0.0,0.0
13:58:06,500745.0,0.0,0.0
13:58:06,500708.0,0.0,0.0
13:58:06,500728.0,0.0,0.0
13:58:06,500687.0,0.0,0.0
13:58:06,500641.0,0.0,0.0
13:58:06,500654.0,0.0,0.0
13:58:06,500578.0,0.0,0.0
13:58:06,500602.0,0.0,0.0
13:58:06,500576.0,0.0,0.0
13:58:06,500481.0,0.0,0.0
13:58:06,500497.0,0.0,0.0
13:58:06,500444.0,0.0,0.0
13:58:06,500458.0,0.0,0.0
13:58:06,500387.0,0.0,0.0
13:58:06,500316.0,0.0,0.0
13:58:06,500269.0,0.0,0.0
13:58:06,500122.0,0.0,0.0
13:58:06,500246.0,0.0,0.0
13:58:06,500333.0,0.0,0.0
13:58:06,500398.0,0.0,0.0
13:58:06,500379.0,0.0,0.0
13:58:06,500159.0,0.0,0.0
13:58:06,500173.0,0.0,0.0
13:58:06,500184.0,0.0,0.0
13:58:06,500233.0,0.0,0.0
13:58:06,500316.0,0.0,0.0
13:58:06,500243.0,0.0,0.0
13:58:06,500292.0,0.0,0.0
13:58:06,500288.0,0.0,0.0
13:58:06,500283.0,0.0,0.0
13:58:06,500356.0,0.0,0.0
13:58:06,500278.0,0.0,0.0
13:58:06,500339.0,0.0,0.0
13:58:06,500333.0,0.0,0.0
13:58:06,500266.0,0.0,0.0
13:58:06,500298.0,0.0,0.0
13:58:06,500235.0,0.0,0.0
13:58:06,500259.0,0.0,0.0
13:58:06,500219.0,0.0,0.0
13:58:06,500170.0,0.0,0.0
13:58:06,500226.0,0.0,0.0
13:58:06,500114.0,0.0,0.0
13:58:06,500127.0,0.0,0.0
13:58:06,500090.0,0.0,0.0
13:58:06,500091.0,0.0,0.0
13:58:06,500173.0,0.0,0.0
13:58:06,500118.0,0.0,0.0
13:58:06,500184.0,0.0,0.0
13:58:06,500166.0,0.0,0.0
13:58:06,500164.0,0.0,0.0
13:58:06,500278.0,0.0,0.0
13:58:06,500219.0,0.0,0.0
13:58:06,500268.0,0.0,0.0
13:58:06,500303.0,0.0,0.0
13:58:06,500273.0,0.0,0.0
13:58:06,500342.0,0.0,0.0
13:58:06,500277.0,0.0,0.0
13:58:06,500268.0,0.0,0.0
13:58:06,500246.0,0.0,0.0
13:58:06,500160.0,0.0,0.0
13:58:06,500247.0,0.0,0.0
13:58:06,500187.0,0.0,0.0
13:58:06,500175.0,0.0,0.0
13:58:06,500138.0,0.0,0.0
13:58:06,500053.0,0.0,0.0
13:58:06,500083.0,0.0,0.0
13:58:06,500052.0,0.0,0.0
13:58:06,500105.0,0.0,0.0
13:58:06,500015.0,0.0,0.0
13:58:06,499981.0,0.0,0.0
13:58:06,499976.0,0.0,0.0
13:58:06,499889.0,0.0,0.0
13:58:06,499971.0,0.0,0.0
13:58:07,499996.0,0.0,0.0
13:58:07,499986.0,0.0,0.0
13:58:07,500038.0,0.0,0.0
13:58:07,499948.0,0.0,0.0
13:58:07,499993.0,0.0,0.0
13:58:07,499973.0,0.0,0.0
13:58:07,499908.0,0.0,0.0
13:58:07,499906.0,0.0,0.0
13:58:07,499834.0,0.0,0.0
13:58:07,499875.0,0.0,0.0
13:58:07,499863.0,0.0,0.0
13:58:07,499796.0,0.0,0.0
13:58:07,499841.0,0.0,0.0
13:58:07,499753.0,0.0,0.0
13:58:07,499728.0,0.0,0.0
13:58:07,499636.0,0.0,0.0
13:58:07,499646.0,0.0,0.0
13:58:07,499842.0,0.0,0.0
13:58:07,499979.0,0.0,0.0
13:58:07,500079.0,0.0,0.0
13:58:07,499851.0,0.0,0.0
13:58:07,499688.0,0.0,0.0
13:58:07,499734.0,0.0,0.0
13:58:07,499603.0,0.0,0.0
13:58:07,499663.0,0.0,0.0
13:58:07,499656.0,0.0,0.0
13:58:07,499603.0,0.0,0.0
13:58:07,499735.0,0.0,0.0
13:58:07,499624.0,0.0,0.0
13:58:07,499633.0,0.0,0.0
13:58:07,499683.0,0.0,0.0
13:58:07,499641.0,0.0,0.0
13:58:07,499668.0,0.0,0.0
13:58:07,499573.0,0.0,0.0
13:58:07,499576.0,0.0,0.0
13:58:07,499502.0,0.0,0.0
13:58:07,499442.0,0.0,0.0
13:58:07,499468.0,0.0,0.0
13:58:07,499376.0,0.0,0.0
13:58:07,499358.0,0.0,0.0
13:58:07,499308.0,0.0,0.0
13:58:07,499228.0,0.0,0.0
13:58:07,499303.0,0.0,0.0
13:58:07,499212.0,0.0,0.0
13:58:07,499189.0,0.0,0.0
13:58:07,499157.0,0.0,0.0
13:58:07,499095.0,0.0,0.0
13:58:07,499149.0,0.0,0.0
13:58:07,499141.0,0.0,0.0
13:58:07,499081.0,0.0,0.0
13:58:07,499003.0,0.0,0.0
13:58:07,498927.0,0.0,0.0
13:58:07,498924.0,0.0,0.0
13:58:07,498947.0,0.0,0.0
13:58:07,498988.0,0.0,0.0
13:58:07,498964.0,0.0,0.0
13:58:07,498919.0,0.0,0.0
13:58:07,499000.0,0.0,0.0
13:58:07,498961.0,0.0,0.0
13:58:07,498989.0,0.0,0.0
13:58:07,499016.0,0.0,0.0
13:58:07,498972.0,0.0,0.0
13:58:07,498989.0,0.0,0.0
13:58:07,498903.0,0.0,0.0
13:58:07,498969.0,0.0,0.0
13:58:07,499008.0,0.0,0.0
13:58:07,498960.0,0.0,0.0
13:58:07,498913.0,0.0,0.0
13:58:07,498798.0,0.0,0.0
13:58:07,498738.0,0.0,0.0
13:58:07,498671.0,0.0,0.0
13:58:07,498666.0,0.0,0.0
13:58:07,498706.0,0.0,0.0
13:58:07,498644.0,0.0,0.0
13:58:07,498704.0,0.0,0.0
13:58:07,498796.0,0.0,0.0
13:58:07,498806.0,0.0,0.0
13:58:07,498739.0,0.0,0.0
13:58:07,498626.0,0.0,0.0
13:58:07,498611.0,0.0,0.0
13:58:07,498536.0,0.0,0.0
13:58:07,498468.0,0.0,0.0
13:58:07,498561.0,0.0,0.0
13:58:07,498513.0,0.0,0.0
13:58:07,498429.0,0.0,0.0
13:58:07,498339.0,0.0,0.0
13:58:07,498263.0,0.0,0.0
13:58:07,498171.0,0.0,0.0
13:58:07,498053.0,0.0,0.0
13:58:07,498121.0,0.0,0.0
13:58:07,498278.0,0.0,0.0
13:58:07,498465.0,0.0,0.0
13:58:07,498449.0,0.0,0.0
13:58:07,498164.0,0.0,0.0
13:58:07,498090.0,0.0,0.0
13:58:07,498077.0,0.0,0.0
13:58:07,498118.0,0.0,0.0
13:58:07,498099.0,0.0,0.0
13:58:07,498064.0,0.0,0.0
13:58:07,498153.0,0.0,0.0
13:58:07,498185.0,0.0,0.0
13:58:07,498102.0,0.0,0.0
13:58:07,498080.0,0.0,0.0
13:58:07,498039.0,0.0,0.0
13:58:07,498016.0,0.0,0.0
13:58:07,497902.0,0.0,0.0
13:58:07,497783.0,0.0,0.0
13:58:07,497793.0,0.0,0.0
13:58:07,497788.0,0.0,0.0
13:58:07,497785.0,0.0,0.0
13:58:07,497835.0,0.0,0.0
13:58:07,497797.0,0.0,0.0
13:58:07,497731.0,0.0,0.0
13:58:07,497731.0,0.0,0.0
13:58:07,497722.0,0.0,0.0
13:58:07,497708.0,0.0,0.0
13:58:07,497755.0,0.0,0.0
13:58:07,497778.0,0.0,0.0
13:58:07,497803.0,0.0,0.0
13:58:07,497828.0,0.0,0.0
13:58:07,497884.0,0.0,0.0
13:58:07,497899.0,0.0,0.0
13:58:07,497851.0,0.0,0.0
13:58:07,497902.0,0.0,0.0
13:58:07,497954.0,0.0,0.0
13:58:08,498010.0,0.0,0.0
13:58:08,498019.0,0.0,0.0
13:58:08,498073.0,0.0,0.0
13:58:08,498093.0,0.0,0.0
13:58:08,498157.0,0.0,0.0
13:58:08,498202.0,0.0,0.0
13:58:08,498173.0,0.0,0.0
13:58:08,498199.0,0.0,0.0
13:58:08,498176.0,0.0,0.0
13:58:08,498201.0,0.0,0.0
13:58:08,498260.0,0.0,0.0
13:58:08,498285.0,0.0,0.0
13:58:08,498358.0,0.0,0.0
13:58:08,498388.0,0.0,0.0
13:58:08,498468.0,0.0,0.0
13:58:08,498503.0,0.0,0.0
13:58:08,498541.0,0.0,0.0
13:58:08,498639.0,0.0,0.0
13:58:08,498601.0,0.0,0.0
13:58:08,498604.0,0.0,0.0
13:58:08,498587.0,0.0,0.0
13:58:08,498584.0,0.0,0.0
13:58:08,498667.0,0.0,0.0
13:58:08,498614.0,0.0,0.0
13:58:08,498591.0,0.0,0.0
13:58:08,498543.0,0.0,0.0
13:58:08,498516.0,0.0,0.0
13:58:08,498507.0,0.0,0.0
13:58:08,498461.0,0.0,0.0
13:58:08,498457.0,0.0,0.0
13:58:08,498411.0,0.0,0.0
13:58:08,498381.0,0.0,0.0
13:58:08,498351.0,0.0,0.0
13:58:08,498316.0,0.0,0.0
13:58:08,498227.0,0.0,0.0
13:58:08,498164.0,0.0,0.0
13:58:08,498284.0,0.0,0.0
13:58:08,498401.0,0.0,0.0
13:58:08,498593.0,0.0,0.0
13:58:08,498501.0,0.0,0.0
13:58:08,498252.0,0.0,0.0
13:58:08,498149.0,0.0,0.0
13:58:08,498181.0,0.0,0.0
13:58:08,498250.0,0.0,0.0
13:58:08,498296.0,0.0,0.0
13:58:08,498335.0,0.0,0.0
13:58:08,498351.0,0.0,0.0
13:58:08,498352.0,0.0,0.0
13:58:08,498423.0,0.0,0.0
13:58:08,498471.0,0.0,0.0
13:58:08,498463.0,0.0,0.0
13:58:08,498466.0,0.0,0.0
13:58:08,498470.0,0.0,0.0
13:58:08,498489.0,0.0,0.0
13:58:08,498538.0,0.0,0.0
13:58:08,498503.0,0.0,0.0
13:58:08,498485.0,0.0,0.0
13:58:08,498452.0,0.0,0.0
13:58:08,498448.0,0.0,0.0
13:58:08,498476.0,0.0,0.0
13:58:08,498534.0,0.0,0.0
13:58:08,498559.0,0.0,0.0
13:58:08,498516.0,0.0,0.0
13:58:08,498578.0,0.0,0.0
13:58:08,498634.0,0.0,0.0
13:58:08,498663.0,0.0,0.0
13:58:08,498714.0,0.0,0.0
13:58:08,498676.0,0.0,0.0
13:58:08,498741.0,0.0,0.0
13:58:08,498793.0,0.0,0.0
13:58:08,498794.0,0.0,0.0
13:58:08,498868.0,0.0,0.0
13:58:08,498900.0,0.0,0.0
13:58:08,498898.0,0.0,0.0
13:58:08,498878.0,0.0,0.0
13:58:08,498883.0,0.0,0.0
13:58:08,498949.0,0.0,0.0
13:58:08,499045.0,0.0,0.0
13:58:08,499044.0,0.0,0.0
13:58:08,499061.0,0.0,0.0
13:58:08,499111.0,0.0,0.0
13:58:08,499146.0,0.0,0.0
13:58:08,499221.0,0.0,0.0
13:58:08,499243.0,0.0,0.0
13:58:08,499238.0,0.0,0.0
13:58:08,499271.0,0.0,0.0
13:58:08,499289.0,0.0,0.0
13:58:08,499323.0,0.0,0.0
13:58:08,499376.0,0.0,0.0
13:58:08,499391.0,0.0,0.0
13:58:08,499428.0,0.0,0.0
13:58:08,499446.0,0.0,0.0
13:58:08,499519.0,0.0,0.0
13:58:08,499563.0,0.0,0.0
13:58:08,499643.0,0.0,0.0
13:58:08,499686.0,0.0,0.0
13:58:08,499679.0,0.0,0.0
13:58:08,499792.0,0.0,0.0
13:58:08,499776.0,0.0,0.0
13:58:08,499814.0,0.0,0.0
13:58:08,499876.0,0.0,0.0
13:58:08,499829.0,0.0,0.0
13:58:08,499866.0,0.0,0.0
13:58:08,499905.0,0.0,0.0
13:58:08,499928.0,0.0,0.0
13:58:08,499967.0,0.0,0.0
13:58:08,499971.0,0.0,0.0
13:58:08,500084.0,0.0,0.0
13:58:08,500237.0,0.0,0.0
13:58:08,500379.0,0.0,0.0
13:58:08,500388.0,0.0,0.0
13:58:08,500244.0,0.0,0.0
13:58:08,500192.0,0.0,0.0
13:58:08,500229.0,0.0,0.0
13:58:08,500262.0,0.0,0.0
13:58:08,500329.0,0.0,0.0
13:58:08,500378.0,0.0,0.0
13:58:08,500408.0,0.0,0.0
13:58:08,500370.0,0.0,0.0
13:58:08,500409.0,0.0,0.0
13:58:08,500471.0,0.0,0.0
13:58:08,500483.0,0.0,0.0
13:58:08,500513.0,0.0,0.0
13:58:08,500491.0,0.0,0.0
13:58:08,500517.0,0.0,0.0
13:58:09,500562.0,0.0,0.0
13:58:09,500601.0,0.0,0.0
13:58:09,500676.0,0.0,0.0
13:58:09,500659.0,0.0,0.0
13:58:09,500671.0,0.0,0.0
13:58:09,500676.0,0.0,0.0
13:58:09,500674.0,0.0,0.0
13:58:09,500693.0,0.0,0.0
13:58:09,500696.0,0.0,0.0
13:58:09,500721.0,0.0,0.0
13:58:09,500719.0,0.0,0.0
13:58:09,500725.0,0.0,0.0
13:58:09,500771.0,0.0,0.0
13:58:09,500790.0,0.0,0.0
13:58:09,500832.0,0.0,0.0
13:58:09,500841.0,0.0,0.0
13:58:09,500869.0,0.0,0.0
13:58:09,500895.0,0.0,0.0
13:58:09,500919.0,0.0,0.0
13:58:09,500951.0,0.0,0.0
13:58:09,500965.0,0.0,0.0
13:58:09,500973.0,0.0,0.0
13:58:09,501038.0,0.0,0.0
13:58:09,501046.0,0.0,0.0
13:58:09,501113.0,0.0,0.0
13:58:09,501145.0,0.0,0.0
13:58:09,501109.0,0.0,0.0
13:58:09,501140.0,0.0,0.0
13:58:09,501117.0,0.0,0.0
13:58:09,501149.0,0.0,0.0
13:58:09,501152.0,0.0,0.0
13:58:09,501164.0,0.0,0.0
13:58:09,501202.0,0.0,0.0
13:58:09,501154.0,0.0,0.0
13:58:09,501176.0,0.0,0.0
13:58:09,501195.0,0.0,0.0
13:58:09,501187.0,0.0,0.0
13:58:09,501196.0,0.0,0.0
13:58:09,501173.0,0.0,0.0
13:58:09,501276.0,0.0,0.0
13:58:09,501315.0,0.0,0.0
13:58:09,501336.0,0.0,0.0
13:58:09,501455.0,0.0,0.0
13:58:09,501468.0,0.0,0.0
13:58:09,501583.0,0.0,0.0
13:58:09,501621.0,0.0,0.0
13:58:09,501635.0,0.0,0.0
13:58:09,501721.0,0.0,0.0
13:58:09,501716.0,0.0,0.0
13:58:09,501776.0,0.0,0.0
13:58:09,501823.0,0.0,0.0
13:58:09,501846.0,0.0,0.0
13:58:09,501901.0,0.0,0.0
13:58:09,502071.0,0.0,0.0
13:58:09,502208.0,0.0,0.0
13:58:09,502351.0,0.0,0.0
13:58:09,502379.0,0.0,0.0
13:58:09,502343.0,0.0,0.0
13:58:09,502382.0,0.0,0.0
13:58:09,502426.0,0.0,0.0
13:58:09,502507.0,0.0,0.0
13:58:09,502594.0,0.0,0.0
13:58:09,502661.0,0.0,0.0
13:58:09,502759.0,0.0,0.0
13:58:09,502794.0,0.0,0.0
13:58:09,502853.0,0.0,0.0
13:58:09,502946.0,0.0,0.0
13:58:09,502994.0,0.0,0.0
13:58:09,503086.0,0.0,0.0
13:58:09,503096.0,0.0,0.0
13:58:09,503112.0,0.0,0.0
13:58:09,503122.0,0.0,0.0
13:58:09,503134.0,0.0,0.0
13:58:09,503196.0,0.0,0.0
13:58:09,503186.0,0.0,0.0
13:58:09,503178.0,0.0,0.0
13:58:09,503175.0,0.0,0.0
13:58:09,503108.0,0.0,0.0
13:58:09,503125.0,0.0,0.0
13:58:09,503123.0,0.0,0.0
13:58:09,503156.0,0.0,0.0
13:58:09,503168.0,0.0,0.0
13:58:09,503155.0,0.0,0.0
13:58:09,503160.0,0.0,0.0
13:58:09,503153.0,0.0,0.0
13:58:09,503160.0,0.0,0.0
13:58:09,503166.0,0.0,0.0
13:58:09,503152.0,0.0,0.0
13:58:09,503129.0,0.0,0.0
13:58:09,503118.0,0.0,0.0
13:58:09,503115.0,0.0,0.0
13:58:09,503023.0,0.0,0.0
13:58:09,502953.0,0.0,0.0
13:58:09,502882.0,0.0,0.0
13:58:09,502836.0,0.0,0.0
13:58:09,502813.0,0.0,0.0
13:58:09,502763.0,0.0,0.0
13:58:09,502706.0,0.0,0.0
13:58:09,502646.0,0.0,0.0
13:58:09,502594.0,0.0,0.0
13:58:09,502583.0,0.0,0.0
13:58:09,502614.0,0.0,0.0
13:58:09,502708.0,0.0,0.0
13:58:09,502708.0,0.0,0.0
13:58:09,502741.0,0.0,0.0
13:58:09,502701.0,0.0,0.0
13:58:09,502706.0,0.0,0.0
13:58:09,502707.0,0.0,0.0
13:58:09,502693.0,0.0,0.0
13:58:09,502721.0,0.0,0.0
13:58:09,502758.0,0.0,0.0
13:58:09,502776.0,0.0,0.0
13:58:09,502834.0,0.0,0.0
13:58:09,502845.0,0.0,0.0
13:58:09,502836.0,0.0,0.0
13:58:09,502816.0,0.0,0.0
13:58:09,502868.0,0.0,0.0
13:58:09,502889.0,0.0,0.0
13:58:09,502889.0,0.0,0.0
13:58:09,502889.0,0.0,0.0
13:58:09,502832.0,0.0,0.0
13:58:09,502779.0,0.0,0.0
13:58:09,502893.0,0.0,0.0
13:58:09,503033.0,0.0,0.0
13:58:09,503110.0,0.0,0.0
13:58:10,503151.0,0.0,0.0
13:58:10,503074.0,0.0,0.0
13:58:10,502993.0,0.0,0.0
13:58:10,503035.0,0.0,0.0
13:58:10,503096.0,0.0,0.0
13:58:10,503162.0,0.0,0.0
13:58:10,503182.0,0.0,0.0
13:58:10,503179.0,0.0,0.0
13:58:10,503130.0,0.0,0.0
13:58:10,503051.0,0.0,0.0
13:58:10,502891.0,0.0,0.0
13:58:10,502761.0,0.0,0.0
13:58:10,502601.0,0.0,0.0
13:58:10,502564.0,0.0,0.0
13:58:10,502574.0,0.0,0.0
13:58:10,502511.0,0.0,0.0
13:58:10,502451.0,0.0,0.0
13:58:10,502425.0,0.0,0.0
13:58:10,502463.0,0.0,0.0
13:58:10,502484.0,0.0,0.0
13:58:10,502461.0,0.0,0.0
13:58:10,502480.0,0.0,0.0
13:58:10,502571.0,0.0,0.0
13:58:10,502618.0,0.0,0.0
13:58:10,502584.0,0.0,0.0
13:58:10,502508.0,0.0,0.0
13:58:10,502578.0,0.0,0.0
13:58:10,502729.0,0.0,0.0
13:58:10,502778.0,0.0,0.0
13:58:10,502682.0,0.0,0.0
13:58:10,502625.0,0.0,0.0
13:58:10,502666.0,0.0,0.0
13:58:10,503131.0,0.0,0.0
13:58:10,502749.0,0.0,0.0
13:58:10,502729.0,0.0,0.0
13:58:10,502851.0,0.0,0.0
13:58:10,502792.0,0.0,0.0
13:58:10,502596.0,0.0,0.0
13:58:10,502604.0,0.0,0.0
13:58:10,502438.0,0.0,0.0
13:58:10,502279.0,0.0,0.0
13:58:10,502353.0,0.0,0.0
13:58:10,502492.0,0.0,0.0
13:58:10,502557.0,0.0,0.0
13:58:10,502202.0,0.0,0.0
13:58:10,502055.0,0.0,0.0
13:58:10,502055.0,0.0,0.0
13:58:10,501834.0,0.0,0.0
13:58:10,501604.0,0.0,0.0
13:58:10,501424.0,0.0,0.0
13:58:10,501398.0,0.0,0.0
13:58:10,501305.0,0.0,0.0
13:58:10,501481.0,0.0,0.0
13:58:10,501623.0,0.0,0.0
13:58:10,501775.0,0.0,0.0
13:58:10,501716.0,0.0,0.0
13:58:10,501652.0,0.0,0.0
13:58:10,501751.0,0.0,0.0
13:58:10,501649.0,0.0,0.0
13:58:10,501789.0,0.0,0.0
13:58:10,501810.0,0.0,0.0
13:58:10,501716.0,0.0,0.0
13:58:10,501875.0,0.0,0.0
13:58:10,501816.0,0.0,0.0
13:58:10,501882.0,0.0,0.0
13:58:10,501919.0,0.0,0.0
13:58:10,502090.0,0.0,0.0
13:58:10,502464.0,0.0,0.0
13:58:10,502672.0,0.0,0.0
13:58:10,503030.0,0.0,0.0
13:58:10,503143.0,0.0,0.0
13:58:10,503158.0,0.0,0.0
13:58:10,503208.0,0.0,0.0
13:58:10,503121.0,0.0,0.0
13:58:10,503127.0,0.0,0.0
13:58:10,503062.0,0.0,0.0
13:58:10,502846.0,0.0,0.0
13:58:10,502716.0,0.0,0.0
13:58:10,502586.0,0.0,0.0
13:58:10,502768.0,0.0,0.0
13:58:10,502891.0,0.0,0.0
13:58:10,502973.0,0.0,0.0
13:58:10,503165.0,0.0,0.0
13:58:10,503161.0,0.0,0.0
13:58:10,502913.0,0.0,0.0
13:58:10,502891.0,0.0,0.0
13:58:10,502909.0,0.0,0.0
13:58:10,502743.0,0.0,0.0
13:58:10,502529.0,0.0,0.0
13:58:10,502555.0,0.0,0.0
13:58:10,502562.0,0.0,0.0
13:58:10,502469.0,0.0,0.0
13:58:10,502319.0,0.0,0.0
13:58:10,502101.0,0.0,0.0
13:58:10,502118.0,0.0,0.0
13:58:10,502343.0,0.0,0.0
13:58:10,502441.0,0.0,0.0
13:58:10,502436.0,0.0,0.0
13:58:10,502326.0,0.0,0.0
13:58:10,502228.0,0.0,0.0
13:58:10,502199.0,0.0,0.0
13:58:10,502326.0,0.0,0.0
13:58:10,502294.0,0.0,0.0
13:58:10,502263.0,0.0,0.0
13:58:10,502324.0,0.0,0.0
13:58:10,502289.0,0.0,0.0
13:58:10,502307.0,0.0,0.0
13:58:10,502348.0,0.0,0.0
13:58:10,502236.0,0.0,0.0
13:58:10,502244.0,0.0,0.0
13:58:10,502294.0,0.0,0.0
13:58:10,502307.0,0.0,0.0
13:58:10,502237.0,0.0,0.0
13:58:10,502253.0,0.0,0.0
13:58:10,502266.0,0.0,0.0
13:58:10,502288.0,0.0,0.0
13:58:10,502185.0,0.0,0.0
13:58:10,502244.0,0.0,0.0
13:58:10,502281.0,0.0,0.0
13:58:10,502260.0,0.0,0.0
13:58:10,502189.0,0.0,0.0
13:58:10,502143.0,0.0,0.0
13:58:10,502151.0,0.0,0.0
13:58:10,501896.0,0.0,0.0
13:58:10,502068.0,0.0,0.0
13:58:11,502456.0,0.0,0.0
13:58:11,502159.0,0.0,0.0
13:58:11,502225.0,0.0,0.0
13:58:11,502291.0,0.0,0.0
13:58:11,502282.0,0.0,0.0
13:58:11,502365.0,0.0,0.0
13:58:11,502053.0,0.0,0.0
13:58:11,501734.0,0.0,0.0
13:58:11,501738.0,0.0,0.0
13:58:11,501776.0,0.0,0.0
13:58:11,501905.0,0.0,0.0
13:58:11,501848.0,0.0,0.0
13:58:11,501722.0,0.0,0.0
13:58:11,501569.0,0.0,0.0
13:58:11,501504.0,0.0,0.0
13:58:11,501484.0,0.0,0.0
13:58:11,501539.0,0.0,0.0
13:58:11,501716.0,0.0,0.0
13:58:11,501715.0,0.0,0.0
13:58:11,501624.0,0.0,0.0
13:58:11,501588.0,0.0,0.0
13:58:11,501656.0,0.0,0.0
13:58:11,501753.0,0.0,0.0
13:58:11,501490.0,0.0,0.0
13:58:11,501484.0,0.0,0.0
13:58:11,501574.0,0.0,0.0
13:58:11,501615.0,0.0,0.0
13:58:11,501940.0,0.0,0.0
13:58:11,501814.0,0.0,0.0
13:58:11,501908.0,0.0,0.0
13:58:11,502136.0,0.0,0.0
13:58:11,502167.0,0.0,0.0
13:58:11,502335.0,0.0,0.0
13:58:11,502336.0,0.0,0.0
13:58:11,502419.0,0.0,0.0
13:58:11,502360.0,0.0,0.0
13:58:11,502346.0,0.0,0.0
13:58:11,502461.0,0.0,0.0
13:58:11,502331.0,0.0,0.0
13:58:11,502588.0,0.0,0.0
13:58:11,502600.0,0.0,0.0
13:58:11,502679.0,0.0,0.0
13:58:11,502819.0,0.0,0.0
13:58:11,502903.0,0.0,0.0
13:58:11,502849.0,0.0,0.0
13:58:11,502796.0,0.0,0.0
13:58:11,502707.0,0.0,0.0
13:58:11,502738.0,0.0,0.0
13:58:11,502631.0,0.0,0.0
13:58:11,502612.0,0.0,0.0
13:58:11,502702.0,0.0,0.0
13:58:11,502757.0,0.0,0.0
13:58:11,502733.0,0.0,0.0
13:58:11,502628.0,0.0,0.0
13:58:11,502492.0,0.0,0.0
13:58:11,502404.0,0.0,0.0
13:58:11,502408.0,0.0,0.0
13:58:11,502411.0,0.0,0.0
13:58:11,502481.0,0.0,0.0
13:58:11,502354.0,0.0,0.0
13:58:11,502338.0,0.0,0.0
13:58:11,502348.0,0.0,0.0
13:58:11,502406.0,0.0,0.0
13:58:11,502439.0,0.0,0.0
13:58:11,502454.0,0.0,0.0
13:58:11,502464.0,0.0,0.0
13:58:11,502429.0,0.0,0.0
13:58:11,502459.0,0.0,0.0
13:58:11,502421.0,0.0,0.0
13:58:11,502409.0,0.0,0.0
13:58:11,502307.0,0.0,0.0
13:58:11,502317.0,0.0,0.0
13:58:11,502414.0,0.0,0.0
13:58:11,502516.0,0.0,0.0
13:58:11,502539.0,0.0,0.0
13:58:11,502556.0,0.0,0.0
13:58:11,502528.0,0.0,0.0
13:58:11,502654.0,0.0,0.0
13:58:11,502702.0,0.0,0.0
13:58:11,502620.0,0.0,0.0
13:58:11,502480.0,0.0,0.0
13:58:11,502428.0,0.0,0.0
13:58:11,502351.0,0.0,0.0
13:58:11,502396.0,0.0,0.0
13:58:11,502314.0,0.0,0.0
13:58:11,502431.0,0.0,0.0
13:58:11,502295.0,0.0,0.0
13:58:11,502222.0,0.0,0.0
13:58:11,502211.0,0.0,0.0
13:58:11,502324.0,0.0,0.0
13:58:11,502201.0,0.0,0.0
13:58:11,502060.0,0.0,0.0
13:58:11,502044.0,0.0,0.0
13:58:11,502052.0,0.0,0.0
13:58:11,501843.0,0.0,0.0
13:58:11,501752.0,0.0,0.0
13:58:11,501728.0,0.0,0.0
13:58:11,501713.0,0.0,0.0
13:58:11,501629.0,0.0,0.0
13:58:11,501498.0,0.0,0.0
13:58:11,501266.0,0.0,0.0
13:58:11,501175.0,0.0,0.0
13:58:11,501166.0,0.0,0.0
13:58:11,501053.0,0.0,0.0
13:58:11,501061.0,0.0,0.0
13:58:11,501121.0,0.0,0.0
13:58:11,501053.0,0.0,0.0
13:58:11,500999.0,0.0,0.0
13:58:11,500943.0,0.0,0.0
13:58:11,501032.0,0.0,0.0
13:58:11,501023.0,0.0,0.0
13:58:11,500925.0,0.0,0.0
13:58:11,500949.0,0.0,0.0
13:58:11,500883.0,0.0,0.0
13:58:11,500974.0,0.0,0.0
13:58:11,501126.0,0.0,0.0
13:58:11,501169.0,0.0,0.0
13:58:11,501363.0,0.0,0.0
13:58:11,501453.0,0.0,0.0
13:58:11,501709.0,0.0,0.0
13:58:11,501913.0,0.0,0.0
13:58:11,501906.0,0.0,0.0
13:58:11,501785.0,0.0,0.0
13:58:11,501424.0,0.0,0.0
13:58:11,501390.0,0.0,0.0
13:58:12,501545.0,0.0,0.0
13:58:12,501674.0,0.0,0.0
13:58:12,501649.0,0.0,0.0
13:58:12,501326.0,0.0,0.0
13:58:12,501274.0,0.0,0.0
13:58:12,501592.0,0.0,0.0
13:58:12,501590.0,0.0,0.0
13:58:12,501494.0,0.0,0.0
13:58:12,501463.0,0.0,0.0
13:58:12,501600.0,0.0,0.0
13:58:12,501598.0,0.0,0.0
13:58:12,501536.0,0.0,0.0
13:58:12,501384.0,0.0,0.0
13:58:12,501208.0,0.0,0.0
13:58:12,501055.0,0.0,0.0
13:58:12,500978.0,0.0,0.0
13:58:12,500888.0,0.0,0.0
13:58:12,500849.0,0.0,0.0
13:58:12,500939.0,0.0,0.0
13:58:12,500899.0,0.0,0.0
13:58:12,500918.0,0.0,0.0
13:58:12,500928.0,0.0,0.0
13:58:12,500981.0,0.0,0.0
13:58:12,501081.0,0.0,0.0
13:58:12,500895.0,0.0,0.0
13:58:12,500783.0,0.0,0.0
13:58:12,500655.0,0.0,0.0
13:58:12,500626.0,0.0,0.0
13:58:12,500566.0,0.0,0.0
13:58:12,500460.0,0.0,0.0
13:58:12,500507.0,0.0,0.0
13:58:12,500489.0,0.0,0.0
13:58:12,500393.0,0.0,0.0
13:58:12,500236.0,0.0,0.0
13:58:12,500288.0,0.0,0.0
13:58:12,500273.0,0.0,0.0
13:58:12,500220.0,0.0,0.0
13:58:12,500203.0,0.0,0.0
13:58:12,500103.0,0.0,0.0
13:58:12,500087.0,0.0,0.0
13:58:12,500031.0,0.0,0.0
13:58:12,499879.0,0.0,0.0
13:58:12,499924.0,0.0,0.0
13:58:12,500005.0,0.0,0.0
13:58:12,500083.0,0.0,0.0
13:58:12,500148.0,0.0,0.0
13:58:12,500116.0,0.0,0.0
13:58:12,499906.0,0.0,0.0
13:58:12,499840.0,0.0,0.0
13:58:12,499864.0,0.0,0.0
13:58:12,500034.0,0.0,0.0
13:58:12,500183.0,0.0,0.0
13:58:12,500148.0,0.0,0.0
13:58:12,499966.0,0.0,0.0
13:58:12,499948.0,0.0,0.0
13:58:12,499958.0,0.0,0.0
13:58:12,499740.0,0.0,0.0
13:58:12,499639.0,0.0,0.0
13:58:12,499605.0,0.0,0.0
13:58:12,499567.0,0.0,0.0
13:58:12,499449.0,0.0,0.0
13:58:12,499344.0,0.0,0.0
13:58:12,499350.0,0.0,0.0
13:58:12,499385.0,0.0,0.0
13:58:12,499314.0,0.0,0.0
13:58:12,499178.0,0.0,0.0
13:58:12,499130.0,0.0,0.0
13:58:12,499198.0,0.0,0.0
13:58:12,499223.0,0.0,0.0
13:58:12,499394.0,0.0,0.0
13:58:12,499352.0,0.0,0.0
13:58:12,499416.0,0.0,0.0
13:58:12,499583.0,0.0,0.0
13:58:12,499534.0,0.0,0.0
13:58:12,499578.0,0.0,0.0
13:58:12,499635.0,0.0,0.0
13:58:12,499503.0,0.0,0.0
13:58:12,499490.0,0.0,0.0
13:58:12,499328.0,0.0,0.0
13:58:12,499338.0,0.0,0.0
13:58:12,499388.0,0.0,0.0
13:58:12,499432.0,0.0,0.0
13:58:12,499550.0,0.0,0.0
13:58:12,499519.0,0.0,0.0
13:58:12,499676.0,0.0,0.0
13:58:12,499855.0,0.0,0.0
13:58:12,500000.0,0.0,0.0
13:58:12,500024.0,0.0,0.0
13:58:12,499926.0,0.0,0.0
13:58:12,499914.0,0.0,0.0
13:58:12,499879.0,0.0,0.0
13:58:12,499813.0,0.0,0.0
13:58:12,499881.0,0.0,0.0
13:58:12,500039.0,0.0,0.0
13:58:12,500195.0,0.0,0.0
13:58:12,499983.0,0.0,0.0
13:58:12,499940.0,0.0,0.0
13:58:12,499989.0,0.0,0.0
13:58:12,499956.0,0.0,0.0
13:58:12,499888.0,0.0,0.0
13:58:12,499770.0,0.0,0.0
13:58:12,499614.0,0.0,0.0
13:58:12,499535.0,0.0,0.0
13:58:12,499537.0,0.0,0.0
13:58:12,499415.0,0.0,0.0
13:58:12,499442.0,0.0,0.0
13:58:12,499379.0,0.0,0.0
13:58:12,499072.0,0.0,0.0
13:58:12,498837.0,0.0,0.0
13:58:12,499179.0,0.0,0.0
13:58:12,499542.0,0.0,0.0
13:58:12,499593.0,0.0,0.0
13:58:12,499522.0,0.0,0.0
13:58:12,499242.0,0.0,0.0
13:58:12,499065.0,0.0,0.0
13:58:12,499031.0,0.0,0.0
13:58:12,498988.0,0.0,0.0
13:58:12,499009.0,0.0,0.0
13:58:12,498972.0,0.0,0.0
13:58:12,498911.0,0.0,0.0
13:58:12,498824.0,0.0,0.0
13:58:12,498620.0,0.0,0.0
13:58:12,498627.0,0.0,0.0
13:58:12,498528.0,0.0,0.0
13:58:12,498411.0,0.0,0.0
13:58:12,498378.0,0.0,0.0
13:58:13,498279.0,0.0,0.0
13:58:13,498211.0,0.0,0.0
13:58:13,498091.0,0.0,0.0
13:58:13,498119.0,0.0,0.0
13:58:13,498100.0,0.0,0.0
13:58:13,498215.0,0.0,0.0
13:58:13,498139.0,0.0,0.0
13:58:13,497658.0,0.0,0.0
13:58:13,497340.0,0.0,0.0
13:58:13,497726.0,0.0,0.0
13:58:13,498486.0,0.0,0.0
13:58:13,498504.0,0.0,0.0
13:58:13,498493.0,0.0,0.0
13:58:13,498260.0,0.0,0.0
13:58:13,498024.0,0.0,0.0
13:58:13,498029.0,0.0,0.0
13:58:13,498194.0,0.0,0.0
13:58:13,498202.0,0.0,0.0
13:58:13,498152.0,0.0,0.0
13:58:13,498125.0,0.0,0.0
13:58:13,498100.0,0.0,0.0
13:58:13,497978.0,0.0,0.0
13:58:13,497761.0,0.0,0.0
13:58:13,497752.0,0.0,0.0
13:58:13,497894.0,0.0,0.0
13:58:13,497859.0,0.0,0.0
13:58:13,497719.0,0.0,0.0
13:58:13,497538.0,0.0,0.0
13:58:13,497553.0,0.0,0.0
13:58:13,497415.0,0.0,0.0
13:58:13,497273.0,0.0,0.0
13:58:13,497332.0,0.0,0.0
13:58:13,497225.0,0.0,0.0
13:58:13,497571.0,0.0,0.0
13:58:13,497823.0,0.0,0.0
13:58:13,497801.0,0.0,0.0
13:58:13,498025.0,0.0,0.0
13:58:13,498013.0,0.0,0.0
13:58:13,497841.0,0.0,0.0
13:58:13,497706.0,0.0,0.0
13:58:13,497592.0,0.0,0.0
13:58:13,497603.0,0.0,0.0
13:58:13,497536.0,0.0,0.0
13:58:13,497613.0,0.0,0.0
13:58:13,497866.0,0.0,0.0
13:58:13,497927.0,0.0,0.0
13:58:13,497958.0,0.0,0.0
13:58:13,497986.0,0.0,0.0
13:58:13,498199.0,0.0,0.0
13:58:13,498444.0,0.0,0.0
13:58:13,498647.0,0.0,0.0
13:58:13,498660.0,0.0,0.0
13:58:13,498189.0,0.0,0.0
13:58:13,498191.0,0.0,0.0
13:58:13,498157.0,0.0,0.0
13:58:13,497705.0,0.0,0.0
13:58:13,497491.0,0.0,0.0
13:58:13,497764.0,0.0,0.0
13:58:13,498079.0,0.0,0.0
13:58:13,498536.0,0.0,0.0
13:58:13,498429.0,0.0,0.0
13:58:13,498436.0,0.0,0.0
13:58:13,498137.0,0.0,0.0
13:58:13,497870.0,0.0,0.0
13:58:13,497723.0,0.0,0.0
13:58:13,497749.0,0.0,0.0
13:58:13,497784.0,0.0,0.0
13:58:13,497768.0,0.0,0.0
13:58:13,497878.0,0.0,0.0
13:58:13,498046.0,0.0,0.0
13:58:13,497994.0,0.0,0.0
13:58:13,497893.0,0.0,0.0
13:58:13,497837.0,0.0,0.0
13:58:13,497907.0,0.0,0.0
13:58:13,497845.0,0.0,0.0
13:58:13,497856.0,0.0,0.0
13:58:13,498133.0,0.0,0.0
13:58:13,498137.0,0.0,0.0
13:58:13,497978.0,0.0,0.0
13:58:13,497867.0,0.0,0.0
13:58:13,497689.0,0.0,0.0
13:58:13,497686.0,0.0,0.0
13:58:13,497616.0,0.0,0.0
13:58:13,497523.0,0.0,0.0
13:58:13,497549.0,0.0,0.0
13:58:13,497414.0,0.0,0.0
13:58:13,497265.0,0.0,0.0
13:58:13,497217.0,0.0,0.0
13:58:13,497161.0,0.0,0.0
13:58:13,496916.0,0.0,0.0
13:58:13,496774.0,0.0,0.0
13:58:13,496959.0,0.0,0.0
13:58:13,496831.0,0.0,0.0
13:58:13,496879.0,0.0,0.0
13:58:13,497084.0,0.0,0.0
13:58:13,496891.0,0.0,0.0
13:58:13,496573.0,0.0,0.0
13:58:13,496371.0,0.0,0.0
13:58:13,496614.0,0.0,0.0
13:58:13,496911.0,0.0,0.0
13:58:13,497055.0,0.0,0.0
13:58:13,497061.0,0.0,0.0
13:58:13,497024.0,0.0,0.0
13:58:13,496756.0,0.0,0.0
13:58:13,496590.0,0.0,0.0
13:58:13,496754.0,0.0,0.0
13:58:13,496926.0,0.0,0.0
13:58:13,496968.0,0.0,0.0
13:58:13,496721.0,0.0,0.0
13:58:13,496495.0,0.0,0.0
13:58:13,496389.0,0.0,0.0
13:58:13,496445.0,0.0,0.0
13:58:13,496338.0,0.0,0.0
13:58:13,496229.0,0.0,0.0
13:58:13,496248.0,0.0,0.0
13:58:13,496334.0,0.0,0.0
13:58:13,496344.0,0.0,0.0
13:58:13,496263.0,0.0,0.0
13:58:13,496194.0,0.0,0.0
13:58:13,496201.0,0.0,0.0
13:58:13,496264.0,0.0,0.0
13:58:13,496181.0,0.0,0.0
13:58:13,496284.0,0.0,0.0
13:58:13,496402.0,0.0,0.0
13:58:13,496101.0,0.0,0.0
13:58:14,495935.0,0.0,0.0
13:58:14,496048.0,0.0,0.0
13:58:14,496046.0,0.0,0.0
13:58:14,496114.0,0.0,0.0
13:58:14,496138.0,0.0,0.0
13:58:14,496203.0,0.0,0.0
13:58:14,496104.0,0.0,0.0
13:58:14,496011.0,0.0,0.0
13:58:14,496112.0,0.0,0.0
13:58:14,496112.0,0.0,0.0
13:58:14,496156.0,0.0,0.0
13:58:14,496313.0,0.0,0.0
13:58:14,496117.0,0.0,0.0
13:58:14,496038.0,0.0,0.0
13:58:14,496422.0,0.0,0.0
13:58:14,497146.0,0.0,0.0
13:58:14,497193.0,0.0,0.0
13:58:14,496724.0,0.0,0.0
13:58:14,496668.0,0.0,0.0
13:58:14,496589.0,0.0,0.0
13:58:14,496389.0,0.0,0.0
13:58:14,496275.0,0.0,0.0
13:58:14,496331.0,0.0,0.0
13:58:14,496485.0,0.0,0.0
13:58:14,496424.0,0.0,0.0
13:58:14,496279.0,0.0,0.0
13:58:14,496276.0,0.0,0.0
13:58:14,496319.0,0.0,0.0
13:58:14,496288.0,0.0,0.0
13:58:14,496269.0,0.0,0.0
13:58:14,496318.0,0.0,0.0
13:58:14,496395.0,0.0,0.0
13:58:14,496394.0,0.0,0.0
13:58:14,496348.0,0.0,0.0
13:58:14,496276.0,0.0,0.0
13:58:14,496203.0,0.0,0.0
13:58:14,496245.0,0.0,0.0
13:58:14,496214.0,0.0,0.0
13:58:14,496210.0,0.0,0.0
13:58:14,496113.0,0.0,0.0
13:58:14,496003.0,0.0,0.0
13:58:14,495918.0,0.0,0.0
13:58:14,495841.0,0.0,0.0
13:58:14,496053.0,0.0,0.0
13:58:14,495946.0,0.0,0.0
13:58:14,495852.0,0.0,0.0
13:58:14,495816.0,0.0,0.0
13:58:14,495791.0,0.0,0.0
13:58:14,495832.0,0.0,0.0
13:58:14,495906.0,0.0,0.0
13:58:14,495904.0,0.0,0.0
13:58:14,496180.0,0.0,0.0
13:58:14,496013.0,0.0,0.0
13:58:14,495756.0,0.0,0.0
13:58:14,495616.0,0.0,0.0
13:58:14,495439.0,0.0,0.0
13:58:14,495447.0,0.0,0.0
13:58:14,495579.0,0.0,0.0
13:58:14,495626.0,0.0,0.0
13:58:14,495589.0,0.0,0.0
13:58:14,495537.0,0.0,0.0
13:58:14,495679.0,0.0,0.0
13:58:14,495606.0,0.0,0.0
13:58:14,495431.0,0.0,0.0
13:58:14,495408.0,0.0,0.0
13:58:14,495324.0,0.0,0.0
13:58:14,495224.0,0.0,0.0
13:58:14,495095.0,0.0,0.0
13:58:14,495035.0,0.0,0.0
13:58:14,495066.0,0.0,0.0
13:58:14,495071.0,0.0,0.0
13:58:14,495114.0,0.0,0.0
13:58:14,495174.0,0.0,0.0
13:58:14,495154.0,0.0,0.0
13:58:14,495074.0,0.0,0.0
13:58:14,494936.0,0.0,0.0
13:58:14,494861.0,0.0,0.0
13:58:14,494872.0,0.0,0.0
13:58:14,494820.0,0.0,0.0
13:58:14,494964.0,0.0,0.0
13:58:14,495061.0,0.0,0.0
13:58:14,494988.0,0.0,0.0
13:58:14,494901.0,0.0,0.0
13:58:14,494889.0,0.0,0.0
13:58:14,494898.0,0.0,0.0
13:58:14,494905.0,0.0,0.0
13:58:14,494897.0,0.0,0.0
13:58:14,494873.0,0.0,0.0
13:58:14,494878.0,0.0,0.0
13:58:14,494874.0,0.0,0.0
13:58:14,494858.0,0.0,0.0
13:58:14,494854.0,0.0,0.0
13:58:14,494710.0,0.0,0.0
13:58:14,494651.0,0.0,0.0
13:58:14,494708.0,0.0,0.0
13:58:14,494791.0,0.0,0.0
13:58:14,494844.0,0.0,0.0
13:58:14,494823.0,0.0,0.0
13:58:14,494767.0,0.0,0.0
13:58:14,494746.0,0.0,0.0
13:58:14,494749.0,0.0,0.0
13:58:14,494783.0,0.0,0.0
13:58:14,494832.0,0.0,0.0
13:58:14,494897.0,0.0,0.0
13:58:14,494925.0,0.0,0.0
13:58:14,495023.0,0.0,0.0
13:58:14,495143.0,0.0,0.0
13:58:14,495134.0,0.0,0.0
13:58:14,495176.0,0.0,0.0
13:58:14,495228.0,0.0,0.0
13:58:14,495129.0,0.0,0.0
13:58:14,495180.0,0.0,0.0
13:58:14,495228.0,0.0,0.0
13:58:14,495297.0,0.0,0.0
13:58:14,495356.0,0.0,0.0
13:58:14,495387.0,0.0,0.0
13:58:14,495379.0,0.0,0.0
13:58:14,495318.0,0.0,0.0
13:58:14,495473.0,0.0,0.0
13:58:14,495729.0,0.0,0.0
13:58:14,495965.0,0.0,0.0
13:58:14,495893.0,0.0,0.0
13:58:14,495706.0,0.0,0.0
13:58:14,495713.0,0.0,0.0
13:58:15,495754.0,0.0,0.0
13:58:15,495761.0,0.0,0.0
13:58:15,495913.0,0.0,0.0
13:58:15,495989.0,0.0,0.0
13:58:15,496041.0,0.0,0.0
13:58:15,496071.0,0.0,0.0
13:58:15,496006.0,0.0,0.0
13:58:15,496013.0,0.0,0.0
13:58:15,496095.0,0.0,0.0
13:58:15,496138.0,0.0,0.0
13:58:15,496222.0,0.0,0.0
13:58:15,496268.0,0.0,0.0
13:58:15,496283.0,0.0,0.0
13:58:15,496314.0,0.0,0.0
13:58:15,496343.0,0.0,0.0
13:58:15,496333.0,0.0,0.0
13:58:15,496213.0,0.0,0.0
13:58:15,496190.0,0.0,0.0
13:58:15,496264.0,0.0,0.0
13:58:15,496358.0,0.0,0.0
13:58:15,496383.0,0.0,0.0
13:58:15,496373.0,0.0,0.0
13:58:15,496434.0,0.0,0.0
13:58:15,496412.0,0.0,0.0
13:58:15,496414.0,0.0,0.0
13:58:15,496419.0,0.0,0.0
13:58:15,496441.0,0.0,0.0
13:58:15,496579.0,0.0,0.0
13:58:15,496578.0,0.0,0.0
13:58:15,496538.0,0.0,0.0
13:58:15,496541.0,0.0,0.0
13:58:15,496486.0,0.0,0.0
13:58:15,496503.0,0.0,0.0
13:58:15,496529.0,0.0,0.0
13:58:15,496563.0,0.0,0.0
13:58:15,496568.0,0.0,0.0
13:58:15,496531.0,0.0,0.0
13:58:15,496584.0,0.0,0.0
13:58:15,496567.0,0.0,0.0
13:58:15,496577.0,0.0,0.0
13:58:15,496573.0,0.0,0.0
13:58:15,496521.0,0.0,0.0
13:58:15,496583.0,0.0,0.0
13:58:15,496591.0,0.0,0.0
13:58:15,496547.0,0.0,0.0
13:58:15,496569.0,0.0,0.0
13:58:15,496577.0,0.0,0.0
13:58:15,496608.0,0.0,0.0
13:58:15,496656.0,0.0,0.0
13:58:15,496646.0,0.0,0.0
13:58:15,496668.0,0.0,0.0
13:58:15,496643.0,0.0,0.0
13:58:15,496715.0,0.0,0.0
13:58:15,496780.0,0.0,0.0
13:58:15,496823.0,0.0,0.0
13:58:15,496854.0,0.0,0.0
13:58:15,496807.0,0.0,0.0
13:58:15,496809.0,0.0,0.0
13:58:15,496811.0,0.0,0.0
13:58:15,496817.0,0.0,0.0
13:58:15,496837.0,0.0,0.0
13:58:15,496803.0,0.0,0.0
13:58:15,496993.0,0.0,0.0
13:58:15,497133.0,0.0,0.0
13:58:15,497256.0,0.0,0.0
13:58:15,497244.0,0.0,0.0
13:58:15,497033.0,0.0,0.0
13:58:15,496975.0,0.0,0.0
13:58:15,496973.0,0.0,0.0
13:58:15,497049.0,0.0,0.0
13:58:15,497155.0,0.0,0.0
13:58:15,497194.0,0.0,0.0
13:58:15,497250.0,0.0,0.0
13:58:15,497274.0,0.0,0.0
13:58:15,497289.0,0.0,0.0
13:58:15,497320.0,0.0,0.0
13:58:15,497348.0,0.0,0.0
13:58:15,497390.0,0.0,0.0
13:58:15,497358.0,0.0,0.0
13:58:15,497348.0,0.0,0.0
13:58:15,497401.0,0.0,0.0
13:58:15,497383.0,0.0,0.0
13:58:15,497459.0,0.0,0.0
13:58:15,497471.0,0.0,0.0
13:58:15,497498.0,0.0,0.0
13:58:15,497515.0,0.0,0.0
13:58:15,497550.0,0.0,0.0
13:58:15,497657.0,0.0,0.0
13:58:15,497706.0,0.0,0.0
13:58:15,497773.0,0.0,0.0
13:58:15,497852.0,0.0,0.0
13:58:15,497858.0,0.0,0.0
13:58:15,497937.0,0.0,0.0
13:58:15,497988.0,0.0,0.0
13:58:15,498061.0,0.0,0.0
13:58:15,498107.0,0.0,0.0
13:58:15,498144.0,0.0,0.0
13:58:15,498214.0,0.0,0.0
13:58:15,498256.0,0.0,0.0
13:58:15,498304.0,0.0,0.0
13:58:15,498324.0,0.0,0.0
13:58:15,498305.0,0.0,0.0
13:58:15,498373.0,0.0,0.0
13:58:15,498406.0,0.0,0.0
13:58:15,498436.0,0.0,0.0
13:58:15,498465.0,0.0,0.0
13:58:15,498429.0,0.0,0.0
13:58:15,498465.0,0.0,0.0
13:58:15,498489.0,0.0,0.0
13:58:15,498552.0,0.0,0.0
13:58:15,498566.0,0.0,0.0
13:58:15,498573.0,0.0,0.0
13:58:15,498594.0,0.0,0.0
13:58:15,498614.0,0.0,0.0
13:58:15,498636.0,0.0,0.0
13:58:15,498742.0,0.0,0.0
13:58:15,498696.0,0.0,0.0
13:58:15,498702.0,0.0,0.0
13:58:15,498723.0,0.0,0.0
13:58:15,498753.0,0.0,0.0
13:58:15,498828.0,0.0,0.0
13:58:15,498806.0,0.0,0.0
13:58:15,498815.0,0.0,0.0
13:58:15,498829.0,0.0,0.0
13:58:15,498869.0,0.0,0.0
13:58:16,498896.0,0.0,0.0
13:58:16,498926.0,0.0,0.0
13:58:16,498935.0,0.0,0.0
13:58:16,498881.0,0.0,0.0
13:58:16,498913.0,0.0,0.0
13:58:16,499084.0,0.0,0.0
13:58:16,499158.0,0.0,0.0
13:58:16,499266.0,0.0,0.0
13:58:16,499209.0,0.0,0.0
13:58:16,499048.0,0.0,0.0
13:58:16,499006.0,0.0,0.0
13:58:16,499042.0,0.0,0.0
13:58:16,499157.0,0.0,0.0
13:58:16,499146.0,0.0,0.0
13:58:16,499199.0,0.0,0.0
13:58:16,499205.0,0.0,0.0
13:58:16,499182.0,0.0,0.0
13:58:16,499271.0,0.0,0.0
13:58:16,499270.0,0.0,0.0
13:58:16,499285.0,0.0,0.0
13:58:16,499289.0,0.0,0.0
13:58:16,499276.0,0.0,0.0
13:58:16,499313.0,0.0,0.0
13:58:16,499303.0,0.0,0.0
13:58:16,499271.0,0.0,0.0
13:58:16,499235.0,0.0,0.0
13:58:16,499194.0,0.0,0.0
13:58:16,499247.0,0.0,0.0
13:58:16,499253.0,0.0,0.0
13:58:16,499264.0,0.0,0.0
13:58:16,499223.0,0.0,0.0
13:58:16,499155.0,0.0,0.0
13:58:16,499224.0,0.0,0.0
13:58:16,499194.0,0.0,0.0
13:58:16,499237.0,0.0,0.0
13:58:16,499259.0,0.0,0.0
13:58:16,499284.0,0.0,0.0
13:58:16,499364.0,0.0,0.0
13:58:16,499388.0,0.0,0.0
13:58:16,499425.0,0.0,0.0
13:58:16,499444.0,0.0,0.0
13:58:16,499438.0,0.0,0.0
13:58:16,499455.0,0.0,0.0
13:58:16,499433.0,0.0,0.0
13:58:16,499434.0,0.0,0.0
13:58:16,499448.0,0.0,0.0
13:58:16,499408.0,0.0,0.0
13:58:16,499421.0,0.0,0.0
13:58:16,499378.0,0.0,0.0
13:58:16,499354.0,0.0,0.0
13:58:16,499342.0,0.0,0.0
13:58:16,499362.0,0.0,0.0
13:58:16,499351.0,0.0,0.0
13:58:16,499329.0,0.0,0.0
13:58:16,499328.0,0.0,0.0
13:58:16,499320.0,0.0,0.0
13:58:16,499289.0,0.0,0.0
13:58:16,499280.0,0.0,0.0
13:58:16,499249.0,0.0,0.0
13:58:16,499211.0,0.0,0.0
13:58:16,499208.0,0.0,0.0
13:58:16,499180.0,0.0,0.0
13:58:16,499161.0,0.0,0.0
13:58:16,499143.0,0.0,0.0
13:58:16,499142.0,0.0,0.0
13:58:16,499119.0,0.0,0.0
13:58:16,499119.0,0.0,0.0
13:58:16,499127.0,0.0,0.0
13:58:16,499100.0,0.0,0.0
13:58:16,499076.0,0.0,0.0
13:58:16,499044.0,0.0,0.0
13:58:16,498986.0,0.0,0.0
13:58:16,499074.0,0.0,0.0
13:58:16,499163.0,0.0,0.0
13:58:16,499208.0,0.0,0.0
13:58:16,499211.0,0.0,0.0
13:58:16,499108.0,0.0,0.0
13:58:16,499067.0,0.0,0.0
13:58:16,499075.0,0.0,0.0
13:58:16,499165.0,0.0,0.0
13:58:16,499210.0,0.0,0.0
13:58:16,499214.0,0.0,0.0
13:58:16,499301.0,0.0,0.0
13:58:16,499303.0,0.0,0.0
13:58:16,499334.0,0.0,0.0
13:58:16,499379.0,0.0,0.0
13:58:16,499359.0,0.0,0.0
13:58:16,499415.0,0.0,0.0
13:58:16,499423.0,0.0,0.0
13:58:16,499478.0,0.0,0.0
13:58:16,499507.0,0.0,0.0
13:58:16,499483.0,0.0,0.0
13:58:16,499543.0,0.0,0.0
13:58:16,499521.0,0.0,0.0
13:58:16,499596.0,0.0,0.0
13:58:16,499636.0,0.0,0.0
13:58:16,499640.0,0.0,0.0
13:58:16,499716.0,0.0,0.0
13:58:16,499737.0,0.0,0.0
13:58:16,499839.0,0.0,0.0
13:58:16,499958.0,0.0,0.0
13:58:16,500024.0,0.0,0.0
13:58:16,500199.0,0.0,0.0
13:58:16,500247.0,0.0,0.0
13:58:16,500353.0,0.0,0.0
13:58:16,500466.0,0.0,0.0
13:58:16,500538.0,0.0,0.0
13:58:16,500706.0,0.0,0.0
13:58:16,500731.0,0.0,0.0
13:58:16,500858.0,0.0,0.0
13:58:16,500948.0,0.0,0.0
13:58:16,500986.0,0.0,0.0
13:58:16,501111.0,0.0,0.0
13:58:16,501106.0,0.0,0.0
13:58:16,501150.0,0.0,0.0
13:58:16,501184.0,0.0,0.0
13:58:16,501188.0,0.0,0.0
13:58:16,501277.0,0.0,0.0
13:58:16,501263.0,0.0,0.0
13:58:16,501246.0,0.0,0.0
13:58:16,501272.0,0.0,0.0
13:58:16,501276.0,0.0,0.0
13:58:16,501334.0,0.0,0.0
13:58:16,501309.0,0.0,0.0
13:58:16,501321.0,0.0,0.0
13:58:17,501331.0,0.0,0.0
13:58:17,501313.0,0.0,0.0
13:58:17,501403.0,0.0,0.0
13:58:17,501426.0,0.0,0.0
13:58:17,501456.0,0.0,0.0
13:58:17,501436.0,0.0,0.0
13:58:17,501400.0,0.0,0.0
13:58:17,501454.0,0.0,0.0
13:58:17,501483.0,0.0,0.0
13:58:17,501466.0,0.0,0.0
13:58:17,501444.0,0.0,0.0
13:58:17,501363.0,0.0,0.0
13:58:17,501493.0,0.0,0.0
13:58:17,501538.0,0.0,0.0
13:58:17,501708.0,0.0,0.0
13:58:17,501814.0,0.0,0.0
13:58:17,501773.0,0.0,0.0
13:58:17,501658.0,0.0,0.0
13:58:17,501516.0,0.0,0.0
13:58:17,501502.0,0.0,0.0
13:58:17,501509.0,0.0,0.0
13:58:17,501489.0,0.0,0.0
13:58:17,501519.0,0.0,0.0
13:58:17,501496.0,0.0,0.0
13:58:17,501482.0,0.0,0.0
13:58:17,501499.0,0.0,0.0
13:58:17,501469.0,0.0,0.0
13:58:17,501433.0,0.0,0.0
13:58:17,501373.0,0.0,0.0
13:58:17,501350.0,0.0,0.0
13:58:17,501356.0,0.0,0.0
13:58:17,501270.0,0.0,0.0
13:58:17,501264.0,0.0,0.0
13:58:17,501132.0,0.0,0.0
13:58:17,501088.0,0.0,0.0
13:58:17,501035.0,0.0,0.0
13:58:17,500948.0,0.0,0.0
13:58:17,500918.0,0.0,0.0
13:58:17,500793.0,0.0,0.0
13:58:17,500754.0,0.0,0.0
13:58:17,500744.0,0.0,0.0
13:58:17,500654.0,0.0,0.0
13:58:17,500626.0,0.0,0.0
13:58:17,500524.0,0.0,0.0
13:58:17,500558.0,0.0,0.0
13:58:17,500513.0,0.0,0.0
13:58:17,500403.0,0.0,0.0
13:58:17,500466.0,0.0,0.0
13:58:17,500386.0,0.0,0.0
13:58:17,500358.0,0.0,0.0
13:58:17,500345.0,0.0,0.0
13:58:17,500298.0,0.0,0.0
13:58:17,500309.0,0.0,0.0
13:58:17,500274.0,0.0,0.0
13:58:17,500272.0,0.0,0.0
13:58:17,500241.0,0.0,0.0
13:58:17,500206.0,0.0,0.0
13:58:17,500239.0,0.0,0.0
13:58:17,500186.0,0.0,0.0
13:58:17,500192.0,0.0,0.0
13:58:17,500218.0,0.0,0.0
13:58:17,500128.0,0.0,0.0
13:58:17,500149.0,0.0,0.0
13:58:17,500128.0,0.0,0.0
13:58:17,500106.0,0.0,0.0
13:58:17,500029.0,0.0,0.0
13:58:17,499978.0,0.0,0.0
13:58:17,500081.0,0.0,0.0
13:58:17,500074.0,0.0,0.0
13:58:17,500111.0,0.0,0.0
13:58:17,500159.0,0.0,0.0
13:58:17,500128.0,0.0,0.0
13:58:17,500163.0,0.0,0.0
13:58:17,500115.0,0.0,0.0
13:58:17,500068.0,0.0,0.0
13:58:17,500049.0,0.0,0.0
13:58:17,500005.0,0.0,0.0
13:58:17,499951.0,0.0,0.0
13:58:17,499878.0,0.0,0.0
13:58:17,499834.0,0.0,0.0
13:58:17,499961.0,0.0,0.0
13:58:17,500061.0,0.0,0.0
13:58:17,500102.0,0.0,0.0
13:58:17,500019.0,0.0,0.0
13:58:17,499834.0,0.0,0.0
13:58:17,499804.0,0.0,0.0
13:58:17,499799.0,0.0,0.0
13:58:17,499844.0,0.0,0.0
13:58:17,499840.0,0.0,0.0
13:58:17,499834.0,0.0,0.0
13:58:17,499808.0,0.0,0.0
13:58:17,499783.0,0.0,0.0
13:58:17,499815.0,0.0,0.0
13:58:17,499771.0,0.0,0.0
13:58:17,499729.0,0.0,0.0
13:58:17,499743.0,0.0,0.0
13:58:17,499749.0,0.0,0.0
13:58:17,499765.0,0.0,0.0
13:58:17,499714.0,0.0,0.0
13:58:17,499726.0,0.0,0.0
13:58:17,499718.0,0.0,0.0
13:58:17,499666.0,0.0,0.0
13:58:17,499702.0,0.0,0.0
13:58:17,499656.0,0.0,0.0
13:58:17,499638.0,0.0,0.0
13:58:17,499599.0,0.0,0.0
13:58:17,499586.0,0.0,0.0
13:58:17,499648.0,0.0,0.0
13:58:17,499604.0,0.0,0.0
13:58:17,499594.0,0.0,0.0
13:58:17,499609.0,0.0,0.0
13:58:17,499513.0,0.0,0.0
13:58:17,499544.0,0.0,0.0
13:58:17,499539.0,0.0,0.0
13:58:17,499513.0,0.0,0.0
13:58:17,499503.0,0.0,0.0
13:58:17,499489.0,0.0,0.0
13:58:17,499499.0,0.0,0.0
13:58:17,499439.0,0.0,0.0
13:58:17,499434.0,0.0,0.0
13:58:17,499443.0,0.0,0.0
13:58:17,499363.0,0.0,0.0
13:58:17,499264.0,0.0,0.0
13:58:17,499281.0,0.0,0.0
13:58:17,499308.0,0.0,0.0
13:58:18,499508.0,0.0,0.0
13:58:18,499488.0,0.0,0.0
13:58:18,499372.0,0.0,0.0
13:58:18,499287.0,0.0,0.0
13:58:18,499281.0,0.0,0.0
13:58:18,499298.0,0.0,0.0
13:58:18,499277.0,0.0,0.0
13:58:18,499293.0,0.0,0.0
13:58:18,499248.0,0.0,0.0
13:58:18,499218.0,0.0,0.0
13:58:18,499249.0,0.0,0.0
13:58:18,499228.0,0.0,0.0
13:58:18,499236.0,0.0,0.0
13:58:18,499185.0,0.0,0.0
13:58:18,499179.0,0.0,0.0
13:58:18,499221.0,0.0,0.0
13:58:18,499162.0,0.0,0.0
13:58:18,499178.0,0.0,0.0
13:58:18,499124.0,0.0,0.0
13:58:18,499098.0,0.0,0.0
13:58:18,499094.0,0.0,0.0
13:58:18,499168.0,0.0,0.0
13:58:18,499270.0,0.0,0.0
13:58:18,499314.0,0.0,0.0
13:58:18,499169.0,0.0,0.0
13:58:18,498969.0,0.0,0.0
13:58:18,498936.0,0.0,0.0
13:58:18,498946.0,0.0,0.0
13:58:18,498899.0,0.0,0.0
13:58:18,498872.0,0.0,0.0
13:58:18,498922.0,0.0,0.0
13:58:18,498877.0,0.0,0.0
13:58:18,498898.0,0.0,0.0
13:58:18,498917.0,0.0,0.0
13:58:18,498878.0,0.0,0.0
13:58:18,498868.0,0.0,0.0
13:58:18,498830.0,0.0,0.0
13:58:18,498749.0,0.0,0.0
13:58:18,498661.0,0.0,0.0
13:58:18,498610.0,0.0,0.0
13:58:18,498573.0,0.0,0.0
13:58:18,498496.0,0.0,0.0
13:58:18,498465.0,0.0,0.0
13:58:18,498418.0,0.0,0.0
13:58:18,498363.0,0.0,0.0
13:58:18,498270.0,0.0,0.0
13:58:18,498180.0,0.0,0.0
13:58:18,498130.0,0.0,0.0
13:58:18,498055.0,0.0,0.0
13:58:18,498012.0,0.0,0.0
13:58:18,497952.0,0.0,0.0
13:58:18,497867.0,0.0,0.0
13:58:18,497813.0,0.0,0.0
13:58:18,497718.0,0.0,0.0
13:58:18,497688.0,0.0,0.0
13:58:18,497593.0,0.0,0.0
13:58:18,497499.0,0.0,0.0
13:58:18,497431.0,0.0,0.0
13:58:18,497289.0,0.0,0.0
13:58:18,497181.0,0.0,0.0
13:58:18,497116.0,0.0,0.0
13:58:18,497016.0,0.0,0.0
13:58:18,496849.0,0.0,0.0
13:58:18,496749.0,0.0,0.0
13:58:18,496638.0,0.0,0.0
13:58:18,496489.0,0.0,0.0
13:58:18,496375.0,0.0,0.0
13:58:18,496303.0,0.0,0.0
13:58:18,496158.0,0.0,0.0
13:58:18,496020.0,0.0,0.0
13:58:18,495903.0,0.0,0.0
13:58:18,495794.0,0.0,0.0
13:58:18,495710.0,0.0,0.0
13:58:18,495564.0,0.0,0.0
13:58:18,495436.0,0.0,0.0
13:58:18,495362.0,0.0,0.0
13:58:18,495298.0,0.0,0.0
13:58:18,495255.0,0.0,0.0
13:58:18,495143.0,0.0,0.0
13:58:18,495067.0,0.0,0.0
13:58:18,494946.0,0.0,0.0
13:58:18,494848.0,0.0,0.0
13:58:18,494783.0,0.0,0.0
13:58:18,494571.0,0.0,0.0
13:58:18,494343.0,0.0,0.0
13:58:18,494150.0,0.0,0.0
13:58:18,493933.0,0.0,0.0
13:58:18,493883.0,0.0,0.0
13:58:18,493917.0,0.0,0.0
13:58:18,493921.0,0.0,0.0
13:58:18,493668.0,0.0,0.0
13:58:18,493274.0,0.0,0.0
13:58:18,493104.0,0.0,0.0
13:58:18,492993.0,0.0,0.0
13:58:18,492765.0,0.0,0.0
13:58:18,492664.0,0.0,0.0
13:58:18,492656.0,0.0,0.0
13:58:18,492409.0,0.0,0.0
13:58:18,492312.0,0.0,0.0
13:58:18,492327.0,0.0,0.0
13:58:18,492184.0,0.0,0.0
13:58:18,492028.0,0.0,0.0
13:58:18,491947.0,0.0,0.0
13:58:18,491831.0,0.0,0.0
13:58:18,491793.0,0.0,0.0
13:58:18,491723.0,0.0,0.0
13:58:18,491636.0,0.0,0.0
13:58:18,491566.0,0.0,0.0
13:58:18,491497.0,0.0,0.0
13:58:18,491439.0,0.0,0.0
13:58:18,491467.0,0.0,0.0
13:58:18,491469.0,0.0,0.0
13:58:18,491390.0,0.0,0.0
13:58:18,491337.0,0.0,0.0
13:58:18,491369.0,0.0,0.0
13:58:18,491379.0,0.0,0.0
13:58:18,491368.0,0.0,0.0
13:58:18,491334.0,0.0,0.0
13:58:18,491314.0,0.0,0.0
13:58:18,491329.0,0.0,0.0
13:58:18,491314.0,0.0,0.0
13:58:18,491325.0,0.0,0.0
13:58:18,491264.0,0.0,0.0
13:58:18,491335.0,0.0,0.0
13:58:18,491398.0,0.0,0.0
13:58:19,491461.0,0.0,0.0
13:58:19,491450.0,0.0,0.0
13:58:19,491481.0,0.0,0.0
13:58:19,491512.0,0.0,0.0
13:58:19,491460.0,0.0,0.0
13:58:19,491411.0,0.0,0.0
13:58:19,491418.0,0.0,0.0
13:58:19,491433.0,0.0,0.0
13:58:19,491489.0,0.0,0.0
13:58:19,491456.0,0.0,0.0
13:58:19,491453.0,0.0,0.0
13:58:19,491417.0,0.0,0.0
13:58:19,491366.0,0.0,0.0
13:58:19,491335.0,0.0,0.0
13:58:19,491307.0,0.0,0.0
13:58:19,491280.0,0.0,0.0
13:58:19,491285.0,0.0,0.0
13:58:19,491230.0,0.0,0.0
13:58:19,491238.0,0.0,0.0
13:58:19,491295.0,0.0,0.0
13:58:19,491267.0,0.0,0.0
13:58:19,491264.0,0.0,0.0
13:58:19,491294.0,0.0,0.0
13:58:19,491315.0,0.0,0.0
13:58:19,491265.0,0.0,0.0
13:58:19,491171.0,0.0,0.0
13:58:19,491079.0,0.0,0.0
13:58:19,491113.0,0.0,0.0
13:58:19,491241.0,0.0,0.0
13:58:19,491499.0,0.0,0.0
13:58:19,491568.0,0.0,0.0
13:58:19,491303.0,0.0,0.0
13:58:19,491144.0,0.0,0.0
13:58:19,490963.0,0.0,0.0
13:58:19,491048.0,0.0,0.0
13:58:19,490963.0,0.0,0.0
13:58:19,490829.0,0.0,0.0
13:58:19,490793.0,0.0,0.0
13:58:19,490759.0,0.0,0.0
13:58:19,490728.0,0.0,0.0
13:58:19,490593.0,0.0,0.0
13:58:19,490383.0,0.0,0.0
13:58:19,490419.0,0.0,0.0
13:58:19,490376.0,0.0,0.0
13:58:19,490349.0,0.0,0.0
13:58:19,490395.0,0.0,0.0
13:58:19,490418.0,0.0,0.0
13:58:19,490371.0,0.0,0.0
13:58:19,490331.0,0.0,0.0
13:58:19,490381.0,0.0,0.0
13:58:19,490374.0,0.0,0.0
13:58:19,490436.0,0.0,0.0
13:58:19,490460.0,0.0,0.0
13:58:19,490445.0,0.0,0.0
13:58:19,490437.0,0.0,0.0
13:58:19,490353.0,0.0,0.0
13:58:19,490391.0,0.0,0.0
13:58:19,490478.0,0.0,0.0
13:58:19,490399.0,0.0,0.0
13:58:19,490399.0,0.0,0.0
13:58:19,490421.0,0.0,0.0
13:58:19,490448.0,0.0,0.0
13:58:19,490535.0,0.0,0.0
13:58:19,490607.0,0.0,0.0
13:58:19,490685.0,0.0,0.0
13:58:19,490631.0,0.0,0.0
13:58:19,490619.0,0.0,0.0
13:58:19,490691.0,0.0,0.0
13:58:19,490672.0,0.0,0.0
13:58:19,490611.0,0.0,0.0
13:58:19,490589.0,0.0,0.0
13:58:19,490526.0,0.0,0.0
13:58:19,490567.0,0.0,0.0
13:58:19,490575.0,0.0,0.0
13:58:19,490583.0,0.0,0.0
13:58:19,490553.0,0.0,0.0
13:58:19,490633.0,0.0,0.0
13:58:19,490614.0,0.0,0.0
13:58:19,490691.0,0.0,0.0
13:58:19,490788.0,0.0,0.0
13:58:19,490861.0,0.0,0.0
13:58:19,490838.0,0.0,0.0
13:58:19,490823.0,0.0,0.0
13:58:19,490869.0,0.0,0.0
13:58:19,490876.0,0.0,0.0
13:58:19,490758.0,0.0,0.0
13:58:19,490803.0,0.0,0.0
13:58:19,490827.0,0.0,0.0
13:58:19,490739.0,0.0,0.0
13:58:19,490779.0,0.0,0.0
13:58:19,490844.0,0.0,0.0
13:58:19,490813.0,0.0,0.0
13:58:19,490763.0,0.0,0.0
13:58:19,490830.0,0.0,0.0
13:58:19,491093.0,0.0,0.0
13:58:19,491253.0,0.0,0.0
13:58:19,490816.0,0.0,0.0
13:58:19,490595.0,0.0,0.0
13:58:19,490494.0,0.0,0.0
13:58:19,490439.0,0.0,0.0
13:58:19,490427.0,0.0,0.0
13:58:19,490409.0,0.0,0.0
13:58:19,490408.0,0.0,0.0
13:58:19,490320.0,0.0,0.0
13:58:19,490281.0,0.0,0.0
13:58:19,490266.0,0.0,0.0
13:58:19,490056.0,0.0,0.0
13:58:19,490023.0,0.0,0.0
13:58:19,490009.0,0.0,0.0
13:58:19,489833.0,0.0,0.0
13:58:19,489760.0,0.0,0.0
13:58:19,489756.0,0.0,0.0
13:58:19,489841.0,0.0,0.0
13:58:19,489875.0,0.0,0.0
13:58:19,489866.0,0.0,0.0
13:58:19,489841.0,0.0,0.0
13:58:19,489881.0,0.0,0.0
13:58:19,489926.0,0.0,0.0
13:58:19,489870.0,0.0,0.0
13:58:19,489831.0,0.0,0.0
13:58:19,489890.0,0.0,0.0
13:58:19,489833.0,0.0,0.0
13:58:19,489874.0,0.0,0.0
13:58:19,489969.0,0.0,0.0
13:58:19,489983.0,0.0,0.0
13:58:19,489993.0,0.0,0.0
13:58:20,489991.0,0.0,0.0
13:58:20,489975.0,0.0,0.0
13:58:20,489956.0,0.0,0.0
13:58:20,490048.0,0.0,0.0
13:58:20,490119.0,0.0,0.0
13:58:20,490093.0,0.0,0.0
13:58:20,490154.0,0.0,0.0
13:58:20,490176.0,0.0,0.0
13:58:20,490268.0,0.0,0.0
13:58:20,490319.0,0.0,0.0
13:58:20,490354.0,0.0,0.0
13:58:20,490397.0,0.0,0.0
13:58:20,490394.0,0.0,0.0
13:58:20,490396.0,0.0,0.0
13:58:20,490431.0,0.0,0.0
13:58:20,490420.0,0.0,0.0
13:58:20,490414.0,0.0,0.0
13:58:20,490442.0,0.0,0.0
13:58:20,490470.0,0.0,0.0
13:58:20,490508.0,0.0,0.0
13:58:20,490450.0,0.0,0.0
13:58:20,490488.0,0.0,0.0
13:58:20,490502.0,0.0,0.0
13:58:20,490526.0,0.0,0.0
13:58:20,490597.0,0.0,0.0
13:58:20,490639.0,0.0,0.0
13:58:20,490693.0,0.0,0.0
13:58:20,490725.0,0.0,0.0
13:58:20,490737.0,0.0,0.0
13:58:20,490726.0,0.0,0.0
13:58:20,490731.0,0.0,0.0
13:58:20,490774.0,0.0,0.0
13:58:20,490943.0,0.0,0.0
13:58:20,491213.0,0.0,0.0
13:58:20,491472.0,0.0,0.0
13:58:20,491284.0,0.0,0.0
13:58:20,491213.0,0.0,0.0
13:58:20,491276.0,0.0,0.0
13:58:20,491394.0,0.0,0.0
13:58:20,491511.0,0.0,0.0
13:58:20,491590.0,0.0,0.0
13:58:20,491732.0,0.0,0.0
13:58:20,491811.0,0.0,0.0
13:58:20,491764.0,0.0,0.0
13:58:20,491808.0,0.0,0.0
13:58:20,491859.0,0.0,0.0
13:58:20,491944.0,0.0,0.0
13:58:20,492003.0,0.0,0.0
13:58:20,492046.0,0.0,0.0
13:58:20,492152.0,0.0,0.0
13:58:20,492148.0,0.0,0.0
13:58:20,492222.0,0.0,0.0
13:58:20,492276.0,0.0,0.0
13:58:20,492312.0,0.0,0.0
13:58:20,492398.0,0.0,0.0
13:58:20,492423.0,0.0,0.0
13:58:20,492508.0,0.0,0.0
13:58:20,492556.0,0.0,0.0
13:58:20,492562.0,0.0,0.0
13:58:20,492593.0,0.0,0.0
13:58:20,492638.0,0.0,0.0
13:58:20,492732.0,0.0,0.0
13:58:20,492684.0,0.0,0.0
13:58:20,492718.0,0.0,0.0
13:58:20,492834.0,0.0,0.0
13:58:20,492809.0,0.0,0.0
13:58:20,492861.0,0.0,0.0
13:58:20,492909.0,0.0,0.0
13:58:20,492942.0,0.0,0.0
13:58:20,492977.0,0.0,0.0
13:58:20,492966.0,0.0,0.0
13:58:20,492956.0,0.0,0.0
13:58:20,492967.0,0.0,0.0
13:58:20,492985.0,0.0,0.0
13:58:20,493037.0,0.0,0.0
13:58:20,493025.0,0.0,0.0
13:58:20,493058.0,0.0,0.0
13:58:20,493020.0,0.0,0.0
13:58:20,493018.0,0.0,0.0
13:58:20,493038.0,0.0,0.0
13:58:20,493019.0,0.0,0.0
13:58:20,492905.0,0.0,0.0
13:58:20,492761.0,0.0,0.0
13:58:20,493059.0,0.0,0.0
13:58:20,493297.0,0.0,0.0
13:58:20,493433.0,0.0,0.0
13:58:20,493393.0,0.0,0.0
13:58:20,493221.0,0.0,0.0
13:58:20,493177.0,0.0,0.0
13:58:20,493166.0,0.0,0.0
13:58:20,493131.0,0.0,0.0
13:58:20,493171.0,0.0,0.0
13:58:20,493186.0,0.0,0.0
13:58:20,493113.0,0.0,0.0
13:58:20,492997.0,0.0,0.0
13:58:20,492884.0,0.0,0.0
13:58:20,492958.0,0.0,0.0
13:58:20,493082.0,0.0,0.0
13:58:20,493190.0,0.0,0.0
13:58:20,492977.0,0.0,0.0
13:58:20,492736.0,0.0,0.0
13:58:20,492539.0,0.0,0.0
13:58:20,492452.0,0.0,0.0
13:58:20,492488.0,0.0,0.0
13:58:20,492428.0,0.0,0.0
13:58:20,492256.0,0.0,0.0
13:58:20,492172.0,0.0,0.0
13:58:20,492099.0,0.0,0.0
13:58:20,492024.0,0.0,0.0
13:58:20,492013.0,0.0,0.0
13:58:20,491987.0,0.0,0.0
13:58:20,492030.0,0.0,0.0
13:58:20,492039.0,0.0,0.0
13:58:20,492001.0,0.0,0.0
13:58:20,492036.0,0.0,0.0
13:58:20,492011.0,0.0,0.0
13:58:20,492038.0,0.0,0.0
13:58:20,492056.0,0.0,0.0
13:58:20,492085.0,0.0,0.0
13:58:20,492115.0,0.0,0.0
13:58:20,492143.0,0.0,0.0
13:58:20,492174.0,0.0,0.0
13:58:20,492178.0,0.0,0.0
13:58:20,492195.0,0.0,0.0
13:58:20,492282.0,0.0,0.0
13:58:21,492290.0,0.0,0.0
13:58:21,492321.0,0.0,0.0
13:58:21,492316.0,0.0,0.0
13:58:21,492279.0,0.0,0.0
13:58:21,492436.0,0.0,0.0
13:58:21,492544.0,0.0,0.0
13:58:21,492551.0,0.0,0.0
13:58:21,492566.0,0.0,0.0
13:58:21,492597.0,0.0,0.0
13:58:21,492659.0,0.0,0.0
13:58:21,492668.0,0.0,0.0
13:58:21,492696.0,0.0,0.0
13:58:21,492733.0,0.0,0.0
13:58:21,492754.0,0.0,0.0
13:58:21,492818.0,0.0,0.0
13:58:21,492863.0,0.0,0.0
13:58:21,492916.0,0.0,0.0
13:58:21,492983.0,0.0,0.0
13:58:21,493039.0,0.0,0.0
13:58:21,493107.0,0.0,0.0
13:58:21,493124.0,0.0,0.0
13:58:21,493214.0,0.0,0.0
13:58:21,493251.0,0.0,0.0
13:58:21,493273.0,0.0,0.0
13:58:21,493337.0,0.0,0.0
13:58:21,493372.0,0.0,0.0
13:58:21,493493.0,0.0,0.0
13:58:21,493539.0,0.0,0.0
13:58:21,493604.0,0.0,0.0
13:58:21,493658.0,0.0,0.0
13:58:21,493686.0,0.0,0.0
13:58:21,493837.0,0.0,0.0
13:58:21,493890.0,0.0,0.0
13:58:21,493914.0,0.0,0.0
13:58:21,493975.0,0.0,0.0
13:58:21,494041.0,0.0,0.0
13:58:21,494351.0,0.0,0.0
13:58:21,494653.0,0.0,0.0
13:58:21,494543.0,0.0,0.0
13:58:21,494384.0,0.0,0.0
13:58:21,494391.0,0.0,0.0
13:58:21,494523.0,0.0,0.0
13:58:21,494630.0,0.0,0.0
13:58:21,494760.0,0.0,0.0
13:58:21,494854.0,0.0,0.0
13:58:21,494850.0,0.0,0.0
13:58:21,494874.0,0.0,0.0
13:58:21,494849.0,0.0,0.0
13:58:21,494782.0,0.0,0.0
13:58:21,494793.0,0.0,0.0
13:58:21,494734.0,0.0,0.0
13:58:21,494718.0,0.0,0.0
13:58:21,494678.0,0.0,0.0
13:58:21,494636.0,0.0,0.0
13:58:21,494677.0,0.0,0.0
13:58:21,494568.0,0.0,0.0
13:58:21,494534.0,0.0,0.0
13:58:21,494474.0,0.0,0.0
13:58:21,494415.0,0.0,0.0
13:58:21,494432.0,0.0,0.0
13:58:21,494433.0,0.0,0.0
13:58:21,494451.0,0.0,0.0
13:58:21,494479.0,0.0,0.0
13:58:21,494486.0,0.0,0.0
13:58:21,494509.0,0.0,0.0
13:58:21,494512.0,0.0,0.0
13:58:21,494561.0,0.0,0.0
13:58:21,494572.0,0.0,0.0
13:58:21,494578.0,0.0,0.0
13:58:21,494653.0,0.0,0.0
13:58:21,494693.0,0.0,0.0
13:58:21,494738.0,0.0,0.0
13:58:21,494765.0,0.0,0.0
13:58:21,494809.0,0.0,0.0
13:58:21,494888.0,0.0,0.0
13:58:21,494933.0,0.0,0.0
13:58:21,494974.0,0.0,0.0
13:58:21,494972.0,0.0,0.0
13:58:21,494947.0,0.0,0.0
13:58:21,494951.0,0.0,0.0
13:58:21,494884.0,0.0,0.0
13:58:21,494898.0,0.0,0.0
13:58:21,494943.0,0.0,0.0
13:58:21,494908.0,0.0,0.0
13:58:21,494919.0,0.0,0.0
13:58:21,494933.0,0.0,0.0
13:58:21,494956.0,0.0,0.0
13:58:21,495013.0,0.0,0.0
13:58:21,495046.0,0.0,0.0
13:58:21,495071.0,0.0,0.0
13:58:21,495054.0,0.0,0.0
13:58:21,495122.0,0.0,0.0
13:58:21,495139.0,0.0,0.0
13:58:21,495096.0,0.0,0.0
13:58:21,495128.0,0.0,0.0
13:58:21,495128.0,0.0,0.0
13:58:21,495119.0,0.0,0.0
13:58:21,495066.0,0.0,0.0
13:58:21,495151.0,0.0,0.0
13:58:21,495365.0,0.0,0.0
13:58:21,495513.0,0.0,0.0
13:58:21,495486.0,0.0,0.0
13:58:21,495281.0,0.0,0.0
13:58:21,495175.0,0.0,0.0
13:58:21,495232.0,0.0,0.0
13:58:21,495254.0,0.0,0.0
13:58:21,495333.0,0.0,0.0
13:58:21,495384.0,0.0,0.0
13:58:21,495441.0,0.0,0.0
13:58:21,495501.0,0.0,0.0
13:58:21,495536.0,0.0,0.0
13:58:21,495589.0,0.0,0.0
13:58:21,495631.0,0.0,0.0
13:58:21,495646.0,0.0,0.0
13:58:21,495664.0,0.0,0.0
13:58:21,495654.0,0.0,0.0
13:58:21,495678.0,0.0,0.0
13:58:21,495676.0,0.0,0.0
13:58:21,495689.0,0.0,0.0
13:58:21,495756.0,0.0,0.0
13:58:21,495811.0,0.0,0.0
13:58:21,495830.0,0.0,0.0
13:58:21,495876.0,0.0,0.0
13:58:21,495864.0,0.0,0.0
13:58:21,495895.0,0.0,0.0
13:58:22,495928.0,0.0,0.0
13:58:22,495927.0,0.0,0.0
13:58:22,495933.0,0.0,0.0
13:58:22,495918.0,0.0,0.0
13:58:22,495991.0,0.0,0.0
13:58:22,495971.0,0.0,0.0
13:58:22,496008.0,0.0,0.0
13:58:22,496058.0,0.0,0.0
13:58:22,496053.0,0.0,0.0
13:58:22,496119.0,0.0,0.0
13:58:22,496126.0,0.0,0.0
13:58:22,496136.0,0.0,0.0
13:58:22,496150.0,0.0,0.0
13:58:22,496141.0,0.0,0.0
13:58:22,496142.0,0.0,0.0
13:58:22,496104.0,0.0,0.0
13:58:22,496158.0,0.0,0.0
13:58:22,496199.0,0.0,0.0
13:58:22,496183.0,0.0,0.0
13:58:22,496185.0,0.0,0.0
13:58:22,496156.0,0.0,0.0
13:58:22,496208.0,0.0,0.0
13:58:22,496259.0,0.0,0.0
13:58:22,496238.0,0.0,0.0
13:58:22,496261.0,0.0,0.0
13:58:22,496249.0,0.0,0.0
13:58:22,496263.0,0.0,0.0
13:58:22,496273.0,0.0,0.0
13:58:22,496285.0,0.0,0.0
13:58:22,496336.0,0.0,0.0
13:58:22,496323.0,0.0,0.0
13:58:22,496359.0,0.0,0.0
13:58:22,496384.0,0.0,0.0
13:58:22,496388.0,0.0,0.0
13:58:22,496402.0,0.0,0.0
13:58:22,496395.0,0.0,0.0
13:58:22,496484.0,0.0,0.0
13:58:22,496616.0,0.0,0.0
13:58:22,496690.0,0.0,0.0
13:58:22,496688.0,0.0,0.0
13:58:22,496463.0,0.0,0.0
13:58:22,496433.0,0.0,0.0
13:58:22,496462.0,0.0,0.0
13:58:22,496489.0,0.0,0.0
13:58:22,496566.0,0.0,0.0
13:58:22,496565.0,0.0,0.0
13:58:22,496573.0,0.0,0.0
13:58:22,496593.0,0.0,0.0
13:58:22,496574.0,0.0,0.0
13:58:22,496610.0,0.0,0.0
13:58:22,496621.0,0.0,0.0
13:58:22,496660.0,0.0,0.0
13:58:22,496656.0,0.0,0.0
13:58:22,496586.0,0.0,0.0
13:58:22,496624.0,0.0,0.0
13:58:22,496578.0,0.0,0.0
13:58:22,496608.0,0.0,0.0
13:58:22,496603.0,0.0,0.0
13:58:22,496555.0,0.0,0.0
13:58:22,496571.0,0.0,0.0
13:58:22,496579.0,0.0,0.0
13:58:22,496642.0,0.0,0.0
13:58:22,496648.0,0.0,0.0
13:58:22,496628.0,0.0,0.0
13:58:22,496670.0,0.0,0.0
13:58:22,496664.0,0.0,0.0
13:58:22,496724.0,0.0,0.0
13:58:22,496779.0,0.0,0.0
13:58:22,496784.0,0.0,0.0
13:58:22,496791.0,0.0,0.0
13:58:22,496762.0,0.0,0.0
13:58:22,496788.0,0.0,0.0
13:58:22,496829.0,0.0,0.0
13:58:22,496812.0,0.0,0.0
13:58:22,496833.0,0.0,0.0
13:58:22,496813.0,0.0,0.0
13:58:22,496826.0,0.0,0.0
13:58:22,496846.0,0.0,0.0
13:58:22,496820.0,0.0,0.0
13:58:22,496820.0,0.0,0.0
13:58:22,496808.0,0.0,0.0
13:58:22,496841.0,0.0,0.0
13:58:22,496863.0,0.0,0.0
13:58:22,496851.0,0.0,0.0
13:58:22,496884.0,0.0,0.0
13:58:22,496863.0,0.0,0.0
13:58:22,496866.0,0.0,0.0
13:58:22,496869.0,0.0,0.0
13:58:22,496906.0,0.0,0.0
13:58:22,496940.0,0.0,0.0
13:58:22,496940.0,0.0,0.0
13:58:22,496950.0,0.0,0.0
13:58:22,496927.0,0.0,0.0
13:58:22,496924.0,0.0,0.0
13:58:22,496946.0,0.0,0.0
13:58:22,496943.0,0.0,0.0
13:58:22,496941.0,0.0,0.0
13:58:22,496911.0,0.0,0.0
13:58:22,496898.0,0.0,0.0
13:58:22,497078.0,0.0,0.0
13:58:22,497155.0,0.0,0.0
13:58:22,497206.0,0.0,0.0
13:58:22,497098.0,0.0,0.0
13:58:22,496936.0,0.0,0.0
13:58:22,496933.0,0.0,0.0
13:58:22,496952.0,0.0,0.0
13:58:22,497018.0,0.0,0.0
13:58:22,497014.0,0.0,0.0
13:58:22,496998.0,0.0,0.0
13:58:22,497053.0,0.0,0.0
13:58:22,497013.0,0.0,0.0
13:58:22,497013.0,0.0,0.0
13:58:22,497036.0,0.0,0.0
13:58:22,497033.0,0.0,0.0
13:58:22,497033.0,0.0,0.0
13:58:22,497015.0,0.0,0.0
13:58:22,497046.0,0.0,0.0
13:58:22,497050.0,0.0,0.0
13:58:22,497005.0,0.0,0.0
13:58:22,497044.0,0.0,0.0
13:58:22,496982.0,0.0,0.0
13:58:22,497015.0,0.0,0.0
13:58:22,497044.0,0.0,0.0
13:58:22,497044.0,0.0,0.0
13:58:22,497053.0,0.0,0.0
13:58:23,497000.0,0.0,0.0
13:58:23,497004.0,0.0,0.0
13:58:23,497065.0,0.0,0.0
13:58:23,497073.0,0.0,0.0
13:58:23,497095.0,0.0,0.0
13:58:23,497067.0,0.0,0.0
13:58:23,497061.0,0.0,0.0
13:58:23,497107.0,0.0,0.0
13:58:23,497111.0,0.0,0.0
13:58:23,497137.0,0.0,0.0
13:58:23,497090.0,0.0,0.0
13:58:23,497117.0,0.0,0.0
13:58:23,497136.0,0.0,0.0
13:58:23,497105.0,0.0,0.0
13:58:23,497139.0,0.0,0.0
13:58:23,497102.0,0.0,0.0
13:58:23,497095.0,0.0,0.0
13:58:23,497107.0,0.0,0.0
13:58:23,497096.0,0.0,0.0
13:58:23,497140.0,0.0,0.0
13:58:23,497142.0,0.0,0.0
13:58:23,497143.0,0.0,0.0
13:58:23,497201.0,0.0,0.0
13:58:23,497194.0,0.0,0.0
13:58:23,497203.0,0.0,0.0
13:58:23,497173.0,0.0,0.0
13:58:23,497170.0,0.0,0.0
13:58:23,497163.0,0.0,0.0
13:58:23,497166.0,0.0,0.0
13:58:23,497194.0,0.0,0.0
13:58:23,497197.0,0.0,0.0
13:58:23,497169.0,0.0,0.0
13:58:23,497179.0,0.0,0.0
13:58:23,497157.0,0.0,0.0
13:58:23,497183.0,0.0,0.0
13:58:23,497179.0,0.0,0.0
13:58:23,497226.0,0.0,0.0
13:58:23,497351.0,0.0,0.0
13:58:23,497371.0,0.0,0.0
13:58:23,497343.0,0.0,0.0
13:58:23,497173.0,0.0,0.0
13:58:23,497125.0,0.0,0.0
13:58:23,497126.0,0.0,0.0
13:58:23,497131.0,0.0,0.0
13:58:23,497202.0,0.0,0.0
13:58:23,497208.0,0.0,0.0
13:58:23,497230.0,0.0,0.0
13:58:23,497283.0,0.0,0.0
13:58:23,497271.0,0.0,0.0
13:58:23,497322.0,0.0,0.0
13:58:23,497304.0,0.0,0.0
13:58:23,497271.0,0.0,0.0
13:58:23,497290.0,0.0,0.0
13:58:23,497260.0,0.0,0.0
13:58:23,497263.0,0.0,0.0
13:58:23,497231.0,0.0,0.0
13:58:23,497267.0,0.0,0.0
13:58:23,497296.0,0.0,0.0
13:58:23,497239.0,0.0,0.0
13:58:23,497243.0,0.0,0.0
13:58:23,497184.0,0.0,0.0
13:58:23,497195.0,0.0,0.0
13:58:23,497196.0,0.0,0.0
13:58:23,497211.0,0.0,0.0
13:58:23,497238.0,0.0,0.0
13:58:23,497231.0,0.0,0.0
13:58:23,497243.0,0.0,0.0
13:58:23,497249.0,0.0,0.0
13:58:23,497266.0,0.0,0.0
13:58:23,497350.0,0.0,0.0
13:58:23,497336.0,0.0,0.0
13:58:23,497342.0,0.0,0.0
13:58:23,497344.0,0.0,0.0
13:58:23,497365.0,0.0,0.0
13:58:23,497426.0,0.0,0.0
13:58:23,497403.0,0.0,0.0
13:58:23,497408.0,0.0,0.0
13:58:23,497388.0,0.0,0.0
13:58:23,497361.0,0.0,0.0
13:58:23,497384.0,0.0,0.0
13:58:23,497381.0,0.0,0.0
13:58:23,497377.0,0.0,0.0
13:58:23,497384.0,0.0,0.0
13:58:23,497332.0,0.0,0.0
13:58:23,497362.0,0.0,0.0
13:58:23,497333.0,0.0,0.0
13:58:23,497337.0,0.0,0.0
13:58:23,497329.0,0.0,0.0
13:58:23,497255.0,0.0,0.0
13:58:23,497291.0,0.0,0.0
13:58:23,497298.0,0.0,0.0
13:58:23,497339.0,0.0,0.0
13:58:23,497354.0,0.0,0.0
13:58:23,497303.0,0.0,0.0
13:58:23,497309.0,0.0,0.0
13:58:23,497265.0,0.0,0.0
13:58:23,497289.0,0.0,0.0
13:58:23,497266.0,0.0,0.0
13:58:23,497203.0,0.0,0.0
13:58:23,497301.0,0.0,0.0
13:58:23,497364.0,0.0,0.0
13:58:23,497386.0,0.0,0.0
13:58:23,497289.0,0.0,0.0
13:58:23,497143.0,0.0,0.0
13:58:23,497127.0,0.0,0.0
13:58:23,497102.0,0.0,0.0
13:58:23,497163.0,0.0,0.0
13:58:23,497225.0,0.0,0.0
13:58:23,497176.0,0.0,0.0
13:58:23,497198.0,0.0,0.0
13:58:23,497141.0,0.0,0.0
13:58:23,497141.0,0.0,0.0
13:58:23,497168.0,0.0,0.0
13:58:23,497106.0,0.0,0.0
13:58:23,497085.0,0.0,0.0
13:58:23,497061.0,0.0,0.0
13:58:23,497023.0,0.0,0.0
13:58:23,497013.0,0.0,0.0
13:58:23,496984.0,0.0,0.0
13:58:23,497036.0,0.0,0.0
13:58:23,496983.0,0.0,0.0
13:58:23,496974.0,0.0,0.0
13:58:23,496978.0,0.0,0.0
13:58:23,496936.0,0.0,0.0
13:58:24,496933.0,0.0,0.0
13:58:24,496840.0,0.0,0.0
13:58:24,496775.0,0.0,0.0
13:58:24,496721.0,0.0,0.0
13:58:24,496659.0,0.0,0.0
13:58:24,496658.0,0.0,0.0
13:58:24,496621.0,0.0,0.0
13:58:24,496588.0,0.0,0.0
13:58:24,496565.0,0.0,0.0
13:58:24,496508.0,0.0,0.0
13:58:24,496524.0,0.0,0.0
13:58:24,496436.0,0.0,0.0
13:58:24,496400.0,0.0,0.0
13:58:24,496342.0,0.0,0.0
13:58:24,496240.0,0.0,0.0
13:58:24,496231.0,0.0,0.0
13:58:24,496203.0,0.0,0.0
13:58:24,496151.0,0.0,0.0
13:58:24,496085.0,0.0,0.0
13:58:24,495997.0,0.0,0.0
13:58:24,495969.0,0.0,0.0
13:58:24,495915.0,0.0,0.0
13:58:24,495926.0,0.0,0.0
13:58:24,495929.0,0.0,0.0
13:58:24,495869.0,0.0,0.0
13:58:24,495926.0,0.0,0.0
13:58:24,495948.0,0.0,0.0
13:58:24,495969.0,0.0,0.0
13:58:24,495956.0,0.0,0.0
13:58:24,495906.0,0.0,0.0
13:58:24,495866.0,0.0,0.0
13:58:24,495806.0,0.0,0.0
13:58:24,495766.0,0.0,0.0
13:58:24,495734.0,0.0,0.0
13:58:24,495672.0,0.0,0.0
13:58:24,495598.0,0.0,0.0
13:58:24,495544.0,0.0,0.0
13:58:24,495663.0,0.0,0.0
13:58:24,495801.0,0.0,0.0
13:58:24,495880.0,0.0,0.0
13:58:24,495867.0,0.0,0.0
13:58:24,495670.0,0.0,0.0
13:58:24,495664.0,0.0,0.0
13:58:24,495738.0,0.0,0.0
13:58:24,495753.0,0.0,0.0
13:58:24,495728.0,0.0,0.0
13:58:24,495659.0,0.0,0.0
13:58:24,495616.0,0.0,0.0
13:58:24,495554.0,0.0,0.0
13:58:24,495515.0,0.0,0.0
13:58:24,495505.0,0.0,0.0
13:58:24,495421.0,0.0,0.0
13:58:24,495404.0,0.0,0.0
13:58:24,495390.0,0.0,0.0
13:58:24,495402.0,0.0,0.0
13:58:24,495441.0,0.0,0.0
13:58:24,495371.0,0.0,0.0
13:58:24,495340.0,0.0,0.0
13:58:24,495310.0,0.0,0.0
13:58:24,495268.0,0.0,0.0
13:58:24,495286.0,0.0,0.0
13:58:24,495241.0,0.0,0.0
13:58:24,495172.0,0.0,0.0
13:58:24,495062.0,0.0,0.0
13:58:24,494968.0,0.0,0.0
13:58:24,494959.0,0.0,0.0
13:58:24,494920.0,0.0,0.0
13:58:24,494874.0,0.0,0.0
13:58:24,494824.0,0.0,0.0
13:58:24,494742.0,0.0,0.0
13:58:24,494755.0,0.0,0.0
13:58:24,494747.0,0.0,0.0
13:58:24,494779.0,0.0,0.0
13:58:24,494828.0,0.0,0.0
13:58:24,494824.0,0.0,0.0
13:58:24,494798.0,0.0,0.0
13:58:24,494763.0,0.0,0.0
13:58:24,494792.0,0.0,0.0
13:58:24,494810.0,0.0,0.0
13:58:24,494774.0,0.0,0.0
13:58:24,494820.0,0.0,0.0
13:58:24,494771.0,0.0,0.0
13:58:24,494766.0,0.0,0.0
13:58:24,494746.0,0.0,0.0
13:58:24,494688.0,0.0,0.0
13:58:24,494693.0,0.0,0.0
13:58:24,494703.0,0.0,0.0
13:58:24,494789.0,0.0,0.0
13:58:24,494821.0,0.0,0.0
13:58:24,494862.0,0.0,0.0
13:58:24,494949.0,0.0,0.0
13:58:24,494904.0,0.0,0.0
13:58:24,494977.0,0.0,0.0
13:58:24,495085.0,0.0,0.0
13:58:24,495079.0,0.0,0.0
13:58:24,495123.0,0.0,0.0
13:58:24,495093.0,0.0,0.0
13:58:24,495104.0,0.0,0.0
13:58:24,495228.0,0.0,0.0
13:58:24,495401.0,0.0,0.0
13:58:24,495548.0,0.0,0.0
13:58:24,495523.0,0.0,0.0
13:58:24,495452.0,0.0,0.0
13:58:24,495443.0,0.0,0.0
13:58:24,495472.0,0.0,0.0
13:58:24,495614.0,0.0,0.0
13:58:24,495599.0,0.0,0.0
13:58:24,495604.0,0.0,0.0
13:58:24,495614.0,0.0,0.0
13:58:24,495630.0,0.0,0.0
13:58:24,495718.0,0.0,0.0
13:58:24,495688.0,0.0,0.0
13:58:24,495704.0,0.0,0.0
13:58:24,495745.0,0.0,0.0
13:58:24,495767.0,0.0,0.0
13:58:24,495902.0,0.0,0.0
13:58:24,495888.0,0.0,0.0
13:58:24,495999.0,0.0,0.0
13:58:24,496053.0,0.0,0.0
13:58:24,496070.0,0.0,0.0
13:58:24,496166.0,0.0,0.0
13:58:24,496078.0,0.0,0.0
13:58:24,496109.0,0.0,0.0
13:58:24,496108.0,0.0,0.0
13:58:24,496050.0,0.0,0.0
13:58:25,496079.0,0.0,0.0
13:58:25,496053.0,0.0,0.0
13:58:25,496135.0,0.0,0.0
13:58:25,496160.0,0.0,0.0
13:58:25,496146.0,0.0,0.0
13:58:25,496241.0,0.0,0.0
13:58:25,496178.0,0.0,0.0
13:58:25,496184.0,0.0,0.0
13:58:25,496138.0,0.0,0.0
13:58:25,496064.0,0.0,0.0
13:58:25,496079.0,0.0,0.0
13:58:25,496020.0,0.0,0.0
13:58:25,496042.0,0.0,0.0
13:58:25,496021.0,0.0,0.0
13:58:25,495899.0,0.0,0.0
13:58:25,495848.0,0.0,0.0
13:58:25,495762.0,0.0,0.0
13:58:25,495713.0,0.0,0.0
13:58:25,495656.0,0.0,0.0
13:58:25,495563.0,0.0,0.0
13:58:25,495579.0,0.0,0.0
13:58:25,495593.0,0.0,0.0
13:58:25,495588.0,0.0,0.0
13:58:25,495618.0,0.0,0.0
13:58:25,495528.0,0.0,0.0
13:58:25,495438.0,0.0,0.0
13:58:25,495428.0,0.0,0.0
13:58:25,495414.0,0.0,0.0
13:58:25,495341.0,0.0,0.0
13:58:25,495247.0,0.0,0.0
13:58:25,495224.0,0.0,0.0
13:58:25,495161.0,0.0,0.0
13:58:25,495129.0,0.0,0.0
13:58:25,495068.0,0.0,0.0
13:58:25,495124.0,0.0,0.0
13:58:25,495298.0,0.0,0.0
13:58:25,495341.0,0.0,0.0
13:58:25,495281.0,0.0,0.0
13:58:25,495043.0,0.0,0.0
13:58:25,494909.0,0.0,0.0
13:58:25,494936.0,0.0,0.0
13:58:25,494897.0,0.0,0.0
13:58:25,494921.0,0.0,0.0
13:58:25,494979.0,0.0,0.0
13:58:25,494981.0,0.0,0.0
13:58:25,495038.0,0.0,0.0
13:58:25,495068.0,0.0,0.0
13:58:25,495118.0,0.0,0.0
13:58:25,495156.0,0.0,0.0
13:58:25,495160.0,0.0,0.0
13:58:25,495304.0,0.0,0.0
13:58:25,495291.0,0.0,0.0
13:58:25,495161.0,0.0,0.0
13:58:25,495121.0,0.0,0.0
13:58:25,495181.0,0.0,0.0
13:58:25,495186.0,0.0,0.0
13:58:25,495240.0,0.0,0.0
13:58:25,495295.0,0.0,0.0
13:58:25,495327.0,0.0,0.0
13:58:25,495183.0,0.0,0.0
13:58:25,495139.0,0.0,0.0
13:58:25,495170.0,0.0,0.0
13:58:25,495173.0,0.0,0.0
13:58:25,495173.0,0.0,0.0
13:58:25,495188.0,0.0,0.0
13:58:25,495291.0,0.0,0.0
13:58:25,495218.0,0.0,0.0
13:58:25,495184.0,0.0,0.0
13:58:25,495166.0,0.0,0.0
13:58:25,495123.0,0.0,0.0
13:58:25,495181.0,0.0,0.0
13:58:25,495148.0,0.0,0.0
13:58:25,495094.0,0.0,0.0
13:58:25,495064.0,0.0,0.0
13:58:25,494973.0,0.0,0.0
13:58:25,494954.0,0.0,0.0
13:58:25,494861.0,0.0,0.0
13:58:25,494806.0,0.0,0.0
13:58:25,494789.0,0.0,0.0
13:58:25,494739.0,0.0,0.0
13:58:25,494826.0,0.0,0.0
13:58:25,494738.0,0.0,0.0
13:58:25,494754.0,0.0,0.0
13:58:25,494776.0,0.0,0.0
13:58:25,494724.0,0.0,0.0
13:58:25,494724.0,0.0,0.0
13:58:25,494661.0,0.0,0.0
13:58:25,494746.0,0.0,0.0
13:58:25,494744.0,0.0,0.0
13:58:25,494744.0,0.0,0.0
13:58:25,494820.0,0.0,0.0
13:58:25,494768.0,0.0,0.0
13:58:25,494768.0,0.0,0.0
13:58:25,494781.0,0.0,0.0
13:58:25,494715.0,0.0,0.0
13:58:25,494744.0,0.0,0.0
13:58:25,494831.0,0.0,0.0
13:58:25,494936.0,0.0,0.0
13:58:25,494941.0,0.0,0.0
13:58:25,494711.0,0.0,0.0
13:58:25,494574.0,0.0,0.0
13:58:25,494443.0,0.0,0.0
13:58:25,494411.0,0.0,0.0
13:58:25,494381.0,0.0,0.0
13:58:25,494319.0,0.0,0.0
13:58:25,494397.0,0.0,0.0
13:58:25,494349.0,0.0,0.0
13:58:25,494328.0,0.0,0.0
13:58:25,494311.0,0.0,0.0
13:58:25,494269.0,0.0,0.0
13:58:25,494348.0,0.0,0.0
13:58:25,494383.0,0.0,0.0
13:58:25,494450.0,0.0,0.0
13:58:25,494496.0,0.0,0.0
13:58:25,494433.0,0.0,0.0
13:58:25,494446.0,0.0,0.0
13:58:25,494426.0,0.0,0.0
13:58:25,494359.0,0.0,0.0
13:58:25,494290.0,0.0,0.0
13:58:25,494182.0,0.0,0.0
13:58:25,494128.0,0.0,0.0
13:58:25,494068.0,0.0,0.0
13:58:25,494038.0,0.0,0.0
13:58:25,494053.0,0.0,0.0
13:58:25,494038.0,0.0,0.0
13:58:26,494061.0,0.0,0.0
13:58:26,494109.0,0.0,0.0
13:58:26,494211.0,0.0,0.0
13:58:26,494364.0,0.0,0.0
13:58:26,494439.0,0.0,0.0
13:58:26,494553.0,0.0,0.0
13:58:26,494593.0,0.0,0.0
13:58:26,494602.0,0.0,0.0
13:58:26,494659.0,0.0,0.0
13:58:26,494634.0,0.0,0.0
13:58:26,494631.0,0.0,0.0
13:58:26,494608.0,0.0,0.0
13:58:26,494603.0,0.0,0.0
13:58:26,494591.0,0.0,0.0
13:58:26,494581.0,0.0,0.0
13:58:26,494649.0,0.0,0.0
13:58:26,494520.0,0.0,0.0
13:58:26,494522.0,0.0,0.0
13:58:26,494561.0,0.0,0.0
13:58:26,494552.0,0.0,0.0
13:58:26,494633.0,0.0,0.0
13:58:26,494546.0,0.0,0.0
13:58:26,494503.0,0.0,0.0
13:58:26,494469.0,0.0,0.0
13:58:26,494415.0,0.0,0.0
13:58:26,494478.0,0.0,0.0
13:58:26,494396.0,0.0,0.0
13:58:26,494369.0,0.0,0.0
13:58:26,494349.0,0.0,0.0
13:58:26,494268.0,0.0,0.0
13:58:26,494291.0,0.0,0.0
13:58:26,494273.0,0.0,0.0
13:58:26,494349.0,0.0,0.0
13:58:26,494501.0,0.0,0.0
13:58:26,494484.0,0.0,0.0
13:58:26,494311.0,0.0,0.0
13:58:26,494157.0,0.0,0.0
13:58:26,494108.0,0.0,0.0
13:58:26,494106.0,0.0,0.0
13:58:26,494066.0,0.0,0.0
13:58:26,494089.0,0.0,0.0
13:58:26,494072.0,0.0,0.0
13:58:26,494061.0,0.0,0.0
13:58:26,494058.0,0.0,0.0
13:58:26,494043.0,0.0,0.0
13:58:26,494026.0,0.0,0.0
13:58:26,494082.0,0.0,0.0
13:58:26,494213.0,0.0,0.0
13:58:26,494272.0,0.0,0.0
13:58:26,494331.0,0.0,0.0
13:58:26,494317.0,0.0,0.0
13:58:26,494224.0,0.0,0.0
13:58:26,494177.0,0.0,0.0
13:58:26,494224.0,0.0,0.0
13:58:26,494216.0,0.0,0.0
13:58:26,494273.0,0.0,0.0
13:58:26,494291.0,0.0,0.0
13:58:26,494305.0,0.0,0.0
13:58:26,494313.0,0.0,0.0
13:58:26,494277.0,0.0,0.0
13:58:26,494241.0,0.0,0.0
13:58:26,494212.0,0.0,0.0
13:58:26,494254.0,0.0,0.0
13:58:26,494283.0,0.0,0.0
13:58:26,494279.0,0.0,0.0
13:58:26,494348.0,0.0,0.0
13:58:26,494338.0,0.0,0.0
13:58:26,494361.0,0.0,0.0
13:58:26,494399.0,0.0,0.0
13:58:26,494413.0,0.0,0.0
13:58:26,494462.0,0.0,0.0
13:58:26,494383.0,0.0,0.0
13:58:26,494374.0,0.0,0.0
13:58:26,494393.0,0.0,0.0
13:58:26,494328.0,0.0,0.0
13:58:26,494307.0,0.0,0.0
13:58:26,494240.0,0.0,0.0
13:58:26,494321.0,0.0,0.0
13:58:26,494445.0,0.0,0.0
13:58:26,494472.0,0.0,0.0
13:58:26,494522.0,0.0,0.0
13:58:26,494438.0,0.0,0.0
13:58:26,494406.0,0.0,0.0
13:58:26,494390.0,0.0,0.0
13:58:26,494315.0,0.0,0.0
13:58:26,494309.0,0.0,0.0
13:58:26,494298.0,0.0,0.0
13:58:26,494326.0,0.0,0.0
13:58:26,494335.0,0.0,0.0
13:58:26,494332.0,0.0,0.0
13:58:26,494410.0,0.0,0.0
13:58:26,494401.0,0.0,0.0
13:58:26,494450.0,0.0,0.0
13:58:26,494588.0,0.0,0.0
13:58:26,494754.0,0.0,0.0
13:58:26,494860.0,0.0,0.0
13:58:26,494574.0,0.0,0.0
13:58:26,494298.0,0.0,0.0
13:58:26,494193.0,0.0,0.0
13:58:26,494123.0,0.0,0.0
13:58:26,494119.0,0.0,0.0
13:58:26,494104.0,0.0,0.0
13:58:26,494108.0,0.0,0.0
13:58:26,494104.0,0.0,0.0
13:58:26,494037.0,0.0,0.0
13:58:26,494041.0,0.0,0.0
13:58:26,493893.0,0.0,0.0
13:58:26,493898.0,0.0,0.0
13:58:26,493922.0,0.0,0.0
13:58:26,493866.0,0.0,0.0
13:58:26,493932.0,0.0,0.0
13:58:26,493868.0,0.0,0.0
13:58:26,493894.0,0.0,0.0
13:58:26,493848.0,0.0,0.0
13:58:26,493771.0,0.0,0.0
13:58:26,493781.0,0.0,0.0
13:58:26,493736.0,0.0,0.0
13:58:26,493729.0,0.0,0.0
13:58:26,493693.0,0.0,0.0
13:58:26,493633.0,0.0,0.0
13:58:26,493673.0,0.0,0.0
13:58:26,493650.0,0.0,0.0
13:58:26,493652.0,0.0,0.0
13:58:26,493618.0,0.0,0.0
13:58:26,493496.0,0.0,0.0
13:58:26,493444.0,0.0,0.0
13:58:27,493394.0,0.0,0.0
13:58:27,493374.0,0.0,0.0
13:58:27,493348.0,0.0,0.0
13:58:27,493316.0,0.0,0.0
13:58:27,493279.0,0.0,0.0
13:58:27,493236.0,0.0,0.0
13:58:27,493224.0,0.0,0.0
13:58:27,493131.0,0.0,0.0
13:58:27,493077.0,0.0,0.0
13:58:27,493051.0,0.0,0.0
13:58:27,492995.0,0.0,0.0
13:58:27,492947.0,0.0,0.0
13:58:27,492823.0,0.0,0.0
13:58:27,492782.0,0.0,0.0
13:58:27,492836.0,0.0,0.0
13:58:27,492814.0,0.0,0.0
13:58:27,492751.0,0.0,0.0
13:58:27,492679.0,0.0,0.0
13:58:27,492566.0,0.0,0.0
13:58:27,492518.0,0.0,0.0
13:58:27,492377.0,0.0,0.0
13:58:27,492357.0,0.0,0.0
13:58:27,492299.0,0.0,0.0
13:58:27,492161.0,0.0,0.0
13:58:27,492214.0,0.0,0.0
13:58:27,492128.0,0.0,0.0
13:58:27,492045.0,0.0,0.0
13:58:27,492091.0,0.0,0.0
13:58:27,492214.0,0.0,0.0
13:58:27,492425.0,0.0,0.0
13:58:27,492418.0,0.0,0.0
13:58:27,492206.0,0.0,0.0
13:58:27,492033.0,0.0,0.0
13:58:27,491980.0,0.0,0.0
13:58:27,492051.0,0.0,0.0
13:58:27,492071.0,0.0,0.0
13:58:27,492199.0,0.0,0.0
13:58:27,492317.0,0.0,0.0
13:58:27,492356.0,0.0,0.0
13:58:27,492393.0,0.0,0.0
13:58:27,492423.0,0.0,0.0
13:58:27,492339.0,0.0,0.0
13:58:27,492279.0,0.0,0.0
13:58:27,492243.0,0.0,0.0
13:58:27,492298.0,0.0,0.0
13:58:27,492352.0,0.0,0.0
13:58:27,492401.0,0.0,0.0
13:58:27,492403.0,0.0,0.0
13:58:27,492363.0,0.0,0.0
13:58:27,492365.0,0.0,0.0
13:58:27,492398.0,0.0,0.0
13:58:27,492404.0,0.0,0.0
13:58:27,492381.0,0.0,0.0
13:58:27,492424.0,0.0,0.0
13:58:27,492314.0,0.0,0.0
13:58:27,492284.0,0.0,0.0
13:58:27,492293.0,0.0,0.0
13:58:27,492380.0,0.0,0.0
13:58:27,492430.0,0.0,0.0
13:58:27,492429.0,0.0,0.0
13:58:27,492323.0,0.0,0.0
13:58:27,492240.0,0.0,0.0
13:58:27,492234.0,0.0,0.0
13:58:27,492215.0,0.0,0.0
13:58:27,492289.0,0.0,0.0
13:58:27,492276.0,0.0,0.0
13:58:27,492219.0,0.0,0.0
13:58:27,492196.0,0.0,0.0
13:58:27,492170.0,0.0,0.0
13:58:27,492181.0,0.0,0.0
13:58:27,492202.0,0.0,0.0
13:58:27,492338.0,0.0,0.0
13:58:27,492283.0,0.0,0.0
13:58:27,492178.0,0.0,0.0
13:58:27,492182.0,0.0,0.0
13:58:27,492113.0,0.0,0.0
13:58:27,492216.0,0.0,0.0
13:58:27,492257.0,0.0,0.0
13:58:27,492205.0,0.0,0.0
13:58:27,492251.0,0.0,0.0
13:58:27,492279.0,0.0,0.0
13:58:27,492298.0,0.0,0.0
13:58:27,492356.0,0.0,0.0
13:58:27,492367.0,0.0,0.0
13:58:27,492396.0,0.0,0.0
13:58:27,492361.0,0.0,0.0
13:58:27,492347.0,0.0,0.0
13:58:27,492291.0,0.0,0.0
13:58:27,492241.0,0.0,0.0
13:58:27,492408.0,0.0,0.0
13:58:27,492599.0,0.0,0.0
13:58:27,492711.0,0.0,0.0
13:58:27,492514.0,0.0,0.0
13:58:27,492282.0,0.0,0.0
13:58:27,492255.0,0.0,0.0
13:58:27,492272.0,0.0,0.0
13:58:27,492360.0,0.0,0.0
13:58:27,492443.0,0.0,0.0
13:58:27,492505.0,0.0,0.0
13:58:27,492594.0,0.0,0.0
13:58:27,492632.0,0.0,0.0
13:58:27,492693.0,0.0,0.0
13:58:27,492739.0,0.0,0.0
13:58:27,492726.0,0.0,0.0
13:58:27,492804.0,0.0,0.0
13:58:27,492768.0,0.0,0.0
13:58:27,492789.0,0.0,0.0
13:58:27,492757.0,0.0,0.0
13:58:27,492692.0,0.0,0.0
13:58:27,492664.0,0.0,0.0
13:58:27,492573.0,0.0,0.0
13:58:27,492650.0,0.0,0.0
13:58:27,492710.0,0.0,0.0
13:58:27,492632.0,0.0,0.0
13:58:27,492648.0,0.0,0.0
13:58:27,492609.0,0.0,0.0
13:58:27,492644.0,0.0,0.0
13:58:27,492738.0,0.0,0.0
13:58:27,492768.0,0.0,0.0
13:58:27,492926.0,0.0,0.0
13:58:27,493013.0,0.0,0.0
13:58:27,493093.0,0.0,0.0
13:58:27,493161.0,0.0,0.0
13:58:27,493166.0,0.0,0.0
13:58:27,493310.0,0.0,0.0
13:58:28,493321.0,0.0,0.0
13:58:28,493296.0,0.0,0.0
13:58:28,493318.0,0.0,0.0
13:58:28,493247.0,0.0,0.0
13:58:28,493351.0,0.0,0.0
13:58:28,493376.0,0.0,0.0
13:58:28,493391.0,0.0,0.0
13:58:28,493399.0,0.0,0.0
13:58:28,493351.0,0.0,0.0
13:58:28,493464.0,0.0,0.0
13:58:28,493495.0,0.0,0.0
13:58:28,493509.0,0.0,0.0
13:58:28,493508.0,0.0,0.0
13:58:28,493458.0,0.0,0.0
13:58:28,493554.0,0.0,0.0
13:58:28,493494.0,0.0,0.0
13:58:28,493484.0,0.0,0.0
13:58:28,493513.0,0.0,0.0
13:58:28,493479.0,0.0,0.0
13:58:28,493529.0,0.0,0.0
13:58:28,493476.0,0.0,0.0
13:58:28,493511.0,0.0,0.0
13:58:28,493559.0,0.0,0.0
13:58:28,493518.0,0.0,0.0
13:58:28,493521.0,0.0,0.0
13:58:28,493475.0,0.0,0.0
13:58:28,493464.0,0.0,0.0
13:58:28,493447.0,0.0,0.0
13:58:28,493429.0,0.0,0.0
13:58:28,493702.0,0.0,0.0
13:58:28,493811.0,0.0,0.0
13:58:28,493646.0,0.0,0.0
13:58:28,493556.0,0.0,0.0
13:58:28,493462.0,0.0,0.0
13:58:28,493513.0,0.0,0.0
13:58:28,493579.0,0.0,0.0
13:58:28,493636.0,0.0,0.0
13:58:28,493709.0,0.0,0.0
13:58:28,493696.0,0.0,0.0
13:58:28,493736.0,0.0,0.0
13:58:28,493671.0,0.0,0.0
13:58:28,493644.0,0.0,0.0
13:58:28,493698.0,0.0,0.0
13:58:28,493721.0,0.0,0.0
13:58:28,493758.0,0.0,0.0
13:58:28,493795.0,0.0,0.0
13:58:28,493841.0,0.0,0.0
13:58:28,493890.0,0.0,0.0
13:58:28,493897.0,0.0,0.0
13:58:28,493980.0,0.0,0.0
13:58:28,493964.0,0.0,0.0
13:58:28,493996.0,0.0,0.0
13:58:28,494011.0,0.0,0.0
13:58:28,494003.0,0.0,0.0
13:58:28,494066.0,0.0,0.0
13:58:28,494070.0,0.0,0.0
13:58:28,494044.0,0.0,0.0
13:58:28,494101.0,0.0,0.0
13:58:28,494141.0,0.0,0.0
13:58:28,494200.0,0.0,0.0
13:58:28,494251.0,0.0,0.0
13:58:28,494265.0,0.0,0.0
13:58:28,494119.0,0.0,0.0
13:58:28,494128.0,0.0,0.0
13:58:28,494499.0,0.0,0.0
13:58:28,494758.0,0.0,0.0
13:58:28,494850.0,0.0,0.0
13:58:28,494696.0,0.0,0.0
13:58:28,494580.0,0.0,0.0
13:58:28,494581.0,0.0,0.0
13:58:28,494598.0,0.0,0.0
13:58:28,494678.0,0.0,0.0
13:58:28,494764.0,0.0,0.0
13:58:28,494751.0,0.0,0.0
13:58:28,494848.0,0.0,0.0
13:58:28,494908.0,0.0,0.0
13:58:28,494938.0,0.0,0.0
13:58:28,495063.0,0.0,0.0
13:58:28,495174.0,0.0,0.0
13:58:28,495315.0,0.0,0.0
13:58:28,495324.0,0.0,0.0
13:58:28,495409.0,0.0,0.0
13:58:28,495463.0,0.0,0.0
13:58:28,495516.0,0.0,0.0
13:58:28,495658.0,0.0,0.0
13:58:28,495633.0,0.0,0.0
13:58:28,495670.0,0.0,0.0
13:58:28,495685.0,0.0,0.0
13:58:28,495656.0,0.0,0.0
13:58:28,495711.0,0.0,0.0
13:58:28,495679.0,0.0,0.0
13:58:28,495640.0,0.0,0.0
13:58:28,495641.0,0.0,0.0
13:58:28,495707.0,0.0,0.0
13:58:28,495921.0,0.0,0.0
13:58:28,495977.0,0.0,0.0
13:58:28,495909.0,0.0,0.0
13:58:28,495793.0,0.0,0.0
13:58:28,495670.0,0.0,0.0
13:58:28,495726.0,0.0,0.0
13:58:28,495873.0,0.0,0.0
13:58:28,495932.0,0.0,0.0
13:58:28,495911.0,0.0,0.0
13:58:28,495923.0,0.0,0.0
13:58:28,495930.0,0.0,0.0
13:58:28,495982.0,0.0,0.0
13:58:28,495978.0,0.0,0.0
13:58:28,495952.0,0.0,0.0
13:58:28,495924.0,0.0,0.0
13:58:28,496058.0,0.0,0.0
13:58:28,496108.0,0.0,0.0
13:58:28,496016.0,0.0,0.0
13:58:28,496040.0,0.0,0.0
13:58:28,496078.0,0.0,0.0
13:58:28,496140.0,0.0,0.0
13:58:28,496196.0,0.0,0.0
13:58:28,496231.0,0.0,0.0
13:58:28,496266.0,0.0,0.0
13:58:28,496238.0,0.0,0.0
13:58:28,496273.0,0.0,0.0
13:58:28,496296.0,0.0,0.0
13:58:28,496312.0,0.0,0.0
13:58:28,496343.0,0.0,0.0
13:58:28,496358.0,0.0,0.0
13:58:28,496412.0,0.0,0.0
13:58:29,496376.0,0.0,0.0
13:58:29,496396.0,0.0,0.0
13:58:29,496493.0,0.0,0.0
13:58:29,496491.0,0.0,0.0
13:58:29,496510.0,0.0,0.0
13:58:29,496476.0,0.0,0.0
13:58:29,496526.0,0.0,0.0
13:58:29,496546.0,0.0,0.0
13:58:29,496478.0,0.0,0.0
13:58:29,496612.0,0.0,0.0
13:58:29,496600.0,0.0,0.0
13:58:29,496627.0,0.0,0.0
13:58:29,496662.0,0.0,0.0
13:58:29,496636.0,0.0,0.0
13:58:29,496611.0,0.0,0.0
13:58:29,496546.0,0.0,0.0
13:58:29,496594.0,0.0,0.0
13:58:29,496677.0,0.0,0.0
13:58:29,496650.0,0.0,0.0
13:58:29,496769.0,0.0,0.0
13:58:29,496818.0,0.0,0.0
13:58:29,496796.0,0.0,0.0
13:58:29,496806.0,0.0,0.0
13:58:29,496802.0,0.0,0.0
13:58:29,496834.0,0.0,0.0
13:58:29,496862.0,0.0,0.0
13:58:29,496849.0,0.0,0.0
13:58:29,496814.0,0.0,0.0
13:58:29,496765.0,0.0,0.0
13:58:29,496959.0,0.0,0.0
13:58:29,497018.0,0.0,0.0
13:58:29,497034.0,0.0,0.0
13:58:29,497009.0,0.0,0.0
13:58:29,497024.0,0.0,0.0
13:58:29,497135.0,0.0,0.0
13:58:29,497148.0,0.0,0.0
13:58:29,497093.0,0.0,0.0
13:58:29,496919.0,0.0,0.0
13:58:29,496813.0,0.0,0.0
13:58:29,496849.0,0.0,0.0
13:58:29,496876.0,0.0,0.0
13:58:29,496853.0,0.0,0.0
13:58:29,496879.0,0.0,0.0
13:58:29,496838.0,0.0,0.0
13:58:29,496832.0,0.0,0.0
13:58:29,496854.0,0.0,0.0
13:58:29,496900.0,0.0,0.0
13:58:29,496916.0,0.0,0.0
13:58:29,496809.0,0.0,0.0
13:58:29,496863.0,0.0,0.0
13:58:29,496871.0,0.0,0.0
13:58:29,496881.0,0.0,0.0
13:58:29,496913.0,0.0,0.0
13:58:29,496885.0,0.0,0.0
13:58:29,496904.0,0.0,0.0
13:58:29,496886.0,0.0,0.0
13:58:29,496898.0,0.0,0.0
13:58:29,496928.0,0.0,0.0
13:58:29,496958.0,0.0,0.0
13:58:29,497000.0,0.0,0.0
13:58:29,496973.0,0.0,0.0
13:58:29,496983.0,0.0,0.0
13:58:29,497034.0,0.0,0.0
13:58:29,496986.0,0.0,0.0
13:58:29,497051.0,0.0,0.0
13:58:29,497036.0,0.0,0.0
13:58:29,497046.0,0.0,0.0
13:58:29,497104.0,0.0,0.0
13:58:29,497041.0,0.0,0.0
13:58:29,497127.0,0.0,0.0
13:58:29,497164.0,0.0,0.0
13:58:29,497165.0,0.0,0.0
13:58:29,497188.0,0.0,0.0
13:58:29,497208.0,0.0,0.0
13:58:29,497274.0,0.0,0.0
13:58:29,497268.0,0.0,0.0
13:58:29,497242.0,0.0,0.0
13:58:29,497288.0,0.0,0.0
13:58:29,497236.0,0.0,0.0
13:58:29,497258.0,0.0,0.0
13:58:29,497221.0,0.0,0.0
13:58:29,497223.0,0.0,0.0
13:58:29,497228.0,0.0,0.0
13:58:29,497231.0,0.0,0.0
13:58:29,497248.0,0.0,0.0
13:58:29,497293.0,0.0,0.0
13:58:29,497290.0,0.0,0.0
13:58:29,497271.0,0.0,0.0
13:58:29,497250.0,0.0,0.0
13:58:29,497282.0,0.0,0.0
13:58:29,497240.0,0.0,0.0
13:58:29,497231.0,0.0,0.0
13:58:29,497244.0,0.0,0.0
13:58:29,497191.0,0.0,0.0
13:58:29,497206.0,0.0,0.0
13:58:29,497208.0,0.0,0.0
13:58:29,497154.0,0.0,0.0
13:58:29,497123.0,0.0,0.0
13:58:29,497119.0,0.0,0.0
13:58:29,497254.0,0.0,0.0
13:58:29,497301.0,0.0,0.0
13:58:29,497286.0,0.0,0.0
13:58:29,497119.0,0.0,0.0
13:58:29,496933.0,0.0,0.0
13:58:29,496919.0,0.0,0.0
13:58:29,496904.0,0.0,0.0
13:58:29,496897.0,0.0,0.0
13:58:29,496908.0,0.0,0.0
13:58:29,496693.0,0.0,0.0
13:58:29,496659.0,0.0,0.0
13:58:29,496701.0,0.0,0.0
13:58:29,496669.0,0.0,0.0
13:58:29,496604.0,0.0,0.0
13:58:29,496521.0,0.0,0.0
13:58:29,496508.0,0.0,0.0
13:58:29,496434.0,0.0,0.0
13:58:29,496378.0,0.0,0.0
13:58:29,496414.0,0.0,0.0
13:58:29,496339.0,0.0,0.0
13:58:29,496306.0,0.0,0.0
13:58:29,496255.0,0.0,0.0
13:58:29,496235.0,0.0,0.0
13:58:29,496278.0,0.0,0.0
13:58:29,496243.0,0.0,0.0
13:58:29,496241.0,0.0,0.0
13:58:30,496174.0,0.0,0.0
13:58:30,496091.0,0.0,0.0
13:58:30,496110.0,0.0,0.0
13:58:30,496078.0,0.0,0.0
13:58:30,496159.0,0.0,0.0
13:58:30,496197.0,0.0,0.0
13:58:30,496263.0,0.0,0.0
13:58:30,496348.0,0.0,0.0
13:58:30,496243.0,0.0,0.0
13:58:30,496264.0,0.0,0.0
13:58:30,496211.0,0.0,0.0
13:58:30,496103.0,0.0,0.0
13:58:30,496067.0,0.0,0.0
13:58:30,496017.0,0.0,0.0
13:58:30,496025.0,0.0,0.0
13:58:30,495991.0,0.0,0.0
13:58:30,495951.0,0.0,0.0
13:58:30,495951.0,0.0,0.0
13:58:30,495791.0,0.0,0.0
13:58:30,495777.0,0.0,0.0
13:58:30,495773.0,0.0,0.0
13:58:30,495696.0,0.0,0.0
13:58:30,495633.0,0.0,0.0
13:58:30,495580.0,0.0,0.0
13:58:30,495559.0,0.0,0.0
13:58:30,495606.0,0.0,0.0
13:58:30,495625.0,0.0,0.0
13:58:30,495641.0,0.0,0.0
13:58:30,495538.0,0.0,0.0
13:58:30,495502.0,0.0,0.0
13:58:30,495458.0,0.0,0.0
13:58:30,495396.0,0.0,0.0
13:58:30,495407.0,0.0,0.0
13:58:30,495308.0,0.0,0.0
13:58:30,495289.0,0.0,0.0
13:58:30,495252.0,0.0,0.0
13:58:30,495158.0,0.0,0.0
13:58:30,495145.0,0.0,0.0
13:58:30,495152.0,0.0,0.0
13:58:30,495243.0,0.0,0.0
13:58:30,495234.0,0.0,0.0
13:58:30,495221.0,0.0,0.0
13:58:30,495049.0,0.0,0.0
13:58:30,494828.0,0.0,0.0
13:58:30,494791.0,0.0,0.0
13:58:30,494794.0,0.0,0.0
13:58:30,494763.0,0.0,0.0
13:58:30,494736.0,0.0,0.0
13:58:30,494614.0,0.0,0.0
13:58:30,494571.0,0.0,0.0
13:58:30,494540.0,0.0,0.0
13:58:30,494528.0,0.0,0.0
13:58:30,494551.0,0.0,0.0
13:58:30,494524.0,0.0,0.0
13:58:30,494483.0,0.0,0.0
13:58:30,494421.0,0.0,0.0
13:58:30,494379.0,0.0,0.0
13:58:30,494401.0,0.0,0.0
13:58:30,494409.0,0.0,0.0
13:58:30,494417.0,0.0,0.0
13:58:30,494385.0,0.0,0.0
13:58:30,494371.0,0.0,0.0
13:58:30,494437.0,0.0,0.0
13:58:30,494496.0,0.0,0.0
13:58:30,494499.0,0.0,0.0
13:58:30,494458.0,0.0,0.0
13:58:30,494402.0,0.0,0.0
13:58:30,494445.0,0.0,0.0
13:58:30,494436.0,0.0,0.0
13:58:30,494441.0,0.0,0.0
13:58:30,494406.0,0.0,0.0
13:58:30,494360.0,0.0,0.0
13:58:30,494342.0,0.0,0.0
13:58:30,494305.0,0.0,0.0
13:58:30,494288.0,0.0,0.0
13:58:30,494327.0,0.0,0.0
13:58:30,494296.0,0.0,0.0
13:58:30,494319.0,0.0,0.0
13:58:30,494293.0,0.0,0.0
13:58:30,494329.0,0.0,0.0
13:58:30,494336.0,0.0,0.0
13:58:30,494299.0,0.0,0.0
13:58:30,494308.0,0.0,0.0
13:58:30,494263.0,0.0,0.0
13:58:30,494300.0,0.0,0.0
13:58:30,494286.0,0.0,0.0
13:58:30,494300.0,0.0,0.0
13:58:30,494273.0,0.0,0.0
13:58:30,494211.0,0.0,0.0
13:58:30,494198.0,0.0,0.0
13:58:30,494181.0,0.0,0.0
13:58:30,494131.0,0.0,0.0
13:58:30,494164.0,0.0,0.0
13:58:30,494101.0,0.0,0.0
13:58:30,494118.0,0.0,0.0
13:58:30,494190.0,0.0,0.0
13:58:30,494206.0,0.0,0.0
13:58:30,494199.0,0.0,0.0
13:58:30,494175.0,0.0,0.0
13:58:30,494146.0,0.0,0.0
13:58:30,494097.0,0.0,0.0
13:58:30,494093.0,0.0,0.0
13:58:30,494082.0,0.0,0.0
13:58:30,493920.0,0.0,0.0
13:58:30,493825.0,0.0,0.0
13:58:30,493759.0,0.0,0.0
13:58:30,493826.0,0.0,0.0
13:58:30,493973.0,0.0,0.0
13:58:30,494049.0,0.0,0.0
13:58:30,493831.0,0.0,0.0
13:58:30,493508.0,0.0,0.0
13:58:30,493419.0,0.0,0.0
13:58:30,493433.0,0.0,0.0
13:58:30,493381.0,0.0,0.0
13:58:30,493361.0,0.0,0.0
13:58:30,493351.0,0.0,0.0
13:58:30,493289.0,0.0,0.0
13:58:30,493297.0,0.0,0.0
13:58:30,493291.0,0.0,0.0
13:58:30,493279.0,0.0,0.0
13:58:30,493241.0,0.0,0.0
13:58:30,493174.0,0.0,0.0
13:58:30,493174.0,0.0,0.0
13:58:30,493126.0,0.0,0.0
13:58:30,493118.0,0.0,0.0
13:58:31,493070.0,0.0,0.0
13:58:31,492988.0,0.0,0.0
13:58:31,492977.0,0.0,0.0
13:58:31,492978.0,0.0,0.0
13:58:31,492932.0,0.0,0.0
13:58:31,492933.0,0.0,0.0
13:58:31,492884.0,0.0,0.0
13:58:31,492883.0,0.0,0.0
13:58:31,492888.0,0.0,0.0
13:58:31,492884.0,0.0,0.0
13:58:31,492904.0,0.0,0.0
13:58:31,492854.0,0.0,0.0
13:58:31,492878.0,0.0,0.0
13:58:31,492854.0,0.0,0.0
13:58:31,492834.0,0.0,0.0
13:58:31,492909.0,0.0,0.0
13:58:31,492891.0,0.0,0.0
13:58:31,492855.0,0.0,0.0
13:58:31,492826.0,0.0,0.0
13:58:31,492798.0,0.0,0.0
13:58:31,492819.0,0.0,0.0
13:58:31,492796.0,0.0,0.0
13:58:31,492797.0,0.0,0.0
13:58:31,492764.0,0.0,0.0
13:58:31,492760.0,0.0,0.0
13:58:31,492791.0,0.0,0.0
13:58:31,492756.0,0.0,0.0
13:58:31,492750.0,0.0,0.0
13:58:31,492714.0,0.0,0.0
13:58:31,492674.0,0.0,0.0
13:58:31,492674.0,0.0,0.0
13:58:31,492619.0,0.0,0.0
13:58:31,492635.0,0.0,0.0
13:58:31,492556.0,0.0,0.0
13:58:31,492506.0,0.0,0.0
13:58:31,492510.0,0.0,0.0
13:58:31,492504.0,0.0,0.0
13:58:31,492516.0,0.0,0.0
13:58:31,492517.0,0.0,0.0
13:58:31,492504.0,0.0,0.0
13:58:31,492478.0,0.0,0.0
13:58:31,492460.0,0.0,0.0
13:58:31,492514.0,0.0,0.0
13:58:31,492475.0,0.0,0.0
13:58:31,492431.0,0.0,0.0
13:58:31,492379.0,0.0,0.0
13:58:31,492333.0,0.0,0.0
13:58:31,492358.0,0.0,0.0
13:58:31,492324.0,0.0,0.0
13:58:31,492266.0,0.0,0.0
13:58:31,492139.0,0.0,0.0
13:58:31,492138.0,0.0,0.0
13:58:31,492361.0,0.0,0.0
13:58:31,492557.0,0.0,0.0
13:58:31,492541.0,0.0,0.0
13:58:31,492248.0,0.0,0.0
13:58:31,492058.0,0.0,0.0
13:58:31,492073.0,0.0,0.0
13:58:31,492120.0,0.0,0.0
13:58:31,492114.0,0.0,0.0
13:58:31,492131.0,0.0,0.0
13:58:31,492104.0,0.0,0.0
13:58:31,492074.0,0.0,0.0
13:58:31,492048.0,0.0,0.0
13:58:31,492048.0,0.0,0.0
13:58:31,492028.0,0.0,0.0
13:58:31,491950.0,0.0,0.0
13:58:31,491954.0,0.0,0.0
13:58:31,491929.0,0.0,0.0
13:58:31,491927.0,0.0,0.0
13:58:31,491943.0,0.0,0.0
13:58:31,491936.0,0.0,0.0
13:58:31,491979.0,0.0,0.0
13:58:31,491924.0,0.0,0.0
13:58:31,491899.0,0.0,0.0
13:58:31,491924.0,0.0,0.0
13:58:31,491878.0,0.0,0.0
13:58:31,491862.0,0.0,0.0
13:58:31,491845.0,0.0,0.0
13:58:31,491776.0,0.0,0.0
13:58:31,491785.0,0.0,0.0
13:58:31,491761.0,0.0,0.0
13:58:31,491749.0,0.0,0.0
13:58:31,491671.0,0.0,0.0
13:58:31,491627.0,0.0,0.0
13:58:31,491659.0,0.0,0.0
13:58:31,491694.0,0.0,0.0
13:58:31,491696.0,0.0,0.0
13:58:31,491653.0,0.0,0.0
13:58:31,491624.0,0.0,0.0
13:58:31,491631.0,0.0,0.0
13:58:31,491610.0,0.0,0.0
13:58:31,491636.0,0.0,0.0
13:58:31,491589.0,0.0,0.0
13:58:31,491550.0,0.0,0.0
13:58:31,491540.0,0.0,0.0
13:58:31,491521.0,0.0,0.0
13:58:31,491508.0,0.0,0.0
13:58:31,491461.0,0.0,0.0
13:58:31,491465.0,0.0,0.0
13:58:31,491483.0,0.0,0.0
13:58:31,491449.0,0.0,0.0
13:58:31,491487.0,0.0,0.0
13:58:31,491468.0,0.0,0.0
13:58:31,491467.0,0.0,0.0
13:58:31,491448.0,0.0,0.0
13:58:31,491424.0,0.0,0.0
13:58:31,491493.0,0.0,0.0
13:58:31,491499.0,0.0,0.0
13:58:31,491509.0,0.0,0.0
13:58:31,491524.0,0.0,0.0
13:58:31,491495.0,0.0,0.0
13:58:31,491526.0,0.0,0.0
13:58:31,491556.0,0.0,0.0
13:58:31,491596.0,0.0,0.0
13:58:31,491617.0,0.0,0.0
13:58:31,491598.0,0.0,0.0
13:58:31,491612.0,0.0,0.0
13:58:31,491599.0,0.0,0.0
13:58:31,491654.0,0.0,0.0
13:58:31,491686.0,0.0,0.0
13:58:31,491640.0,0.0,0.0
13:58:31,491607.0,0.0,0.0
13:58:31,491605.0,0.0,0.0
13:58:31,491632.0,0.0,0.0
13:58:32,491656.0,0.0,0.0
13:58:32,491536.0,0.0,0.0
13:58:32,491518.0,0.0,0.0
13:58:32,491646.0,0.0,0.0
13:58:32,491902.0,0.0,0.0
13:58:32,492168.0,0.0,0.0
13:58:32,492036.0,0.0,0.0
13:58:32,491781.0,0.0,0.0
13:58:32,491668.0,0.0,0.0
13:58:32,491721.0,0.0,0.0
13:58:32,491796.0,0.0,0.0
13:58:32,491814.0,0.0,0.0
13:58:32,491909.0,0.0,0.0
13:58:32,491928.0,0.0,0.0
13:58:32,491970.0,0.0,0.0
13:58:32,492019.0,0.0,0.0
13:58:32,491998.0,0.0,0.0
13:58:32,492021.0,0.0,0.0
13:58:32,491949.0,0.0,0.0
13:58:32,491975.0,0.0,0.0
13:58:32,491986.0,0.0,0.0
13:58:32,491963.0,0.0,0.0
13:58:32,492011.0,0.0,0.0
13:58:32,491971.0,0.0,0.0
13:58:32,491999.0,0.0,0.0
13:58:32,491993.0,0.0,0.0
13:58:32,491942.0,0.0,0.0
13:58:32,492005.0,0.0,0.0
13:58:32,491968.0,0.0,0.0
13:58:32,491983.0,0.0,0.0
13:58:32,491992.0,0.0,0.0
13:58:32,491956.0,0.0,0.0
13:58:32,492029.0,0.0,0.0
13:58:32,491985.0,0.0,0.0
13:58:32,491944.0,0.0,0.0
13:58:32,491944.0,0.0,0.0
13:58:32,491961.0,0.0,0.0
13:58:32,492009.0,0.0,0.0
13:58:32,492016.0,0.0,0.0
13:58:32,492084.0,0.0,0.0
13:58:32,492113.0,0.0,0.0
13:58:32,492049.0,0.0,0.0
13:58:32,492078.0,0.0,0.0
13:58:32,492020.0,0.0,0.0
13:58:32,492026.0,0.0,0.0
13:58:32,492024.0,0.0,0.0
13:58:32,491923.0,0.0,0.0
13:58:32,491942.0,0.0,0.0
13:58:32,491929.0,0.0,0.0
13:58:32,491951.0,0.0,0.0
13:58:32,491933.0,0.0,0.0
13:58:32,491906.0,0.0,0.0
13:58:32,491948.0,0.0,0.0
13:58:32,491885.0,0.0,0.0
13:58:32,491954.0,0.0,0.0
13:58:32,492016.0,0.0,0.0
13:58:32,491963.0,0.0,0.0
13:58:32,492023.0,0.0,0.0
13:58:32,492029.0,0.0,0.0
13:58:32,492079.0,0.0,0.0
13:58:32,492089.0,0.0,0.0
13:58:32,492075.0,0.0,0.0
13:58:32,492124.0,0.0,0.0
13:58:32,492046.0,0.0,0.0
13:58:32,492051.0,0.0,0.0
13:58:32,492075.0,0.0,0.0
13:58:32,492023.0,0.0,0.0
13:58:32,492072.0,0.0,0.0
13:58:32,492050.0,0.0,0.0
13:58:32,492083.0,0.0,0.0
13:58:32,492134.0,0.0,0.0
13:58:32,492131.0,0.0,0.0
13:58:32,492198.0,0.0,0.0
13:58:32,492162.0,0.0,0.0
13:58:32,492203.0,0.0,0.0
13:58:32,492280.0,0.0,0.0
13:58:32,492301.0,0.0,0.0
13:58:32,492346.0,0.0,0.0
13:58:32,492244.0,0.0,0.0
13:58:32,492260.0,0.0,0.0
13:58:32,492450.0,0.0,0.0
13:58:32,492734.0,0.0,0.0
13:58:32,492982.0,0.0,0.0
13:58:32,492772.0,0.0,0.0
13:58:32,492494.0,0.0,0.0
13:58:32,492448.0,0.0,0.0
13:58:32,492440.0,0.0,0.0
13:58:32,492424.0,0.0,0.0
13:58:32,492379.0,0.0,0.0
13:58:32,492380.0,0.0,0.0
13:58:32,492399.0,0.0,0.0
13:58:32,492419.0,0.0,0.0
13:58:32,492514.0,0.0,0.0
13:58:32,492490.0,0.0,0.0
13:58:32,492519.0,0.0,0.0
13:58:32,492566.0,0.0,0.0
13:58:32,492562.0,0.0,0.0
13:58:32,492608.0,0.0,0.0
13:58:32,492685.0,0.0,0.0
13:58:32,492813.0,0.0,0.0
13:58:32,492838.0,0.0,0.0
13:58:32,492854.0,0.0,0.0
13:58:32,493005.0,0.0,0.0
13:58:32,492968.0,0.0,0.0
13:58:32,492982.0,0.0,0.0
13:58:32,492974.0,0.0,0.0
13:58:32,492882.0,0.0,0.0
13:58:32,492873.0,0.0,0.0
13:58:32,492809.0,0.0,0.0
13:58:32,492841.0,0.0,0.0
13:58:32,492788.0,0.0,0.0
13:58:32,492749.0,0.0,0.0
13:58:32,492726.0,0.0,0.0
13:58:32,492615.0,0.0,0.0
13:58:32,492622.0,0.0,0.0
13:58:32,492609.0,0.0,0.0
13:58:32,492648.0,0.0,0.0
13:58:32,492699.0,0.0,0.0
13:58:32,492694.0,0.0,0.0
13:58:32,492700.0,0.0,0.0
13:58:32,492691.0,0.0,0.0
13:58:32,492651.0,0.0,0.0
13:58:32,492619.0,0.0,0.0
13:58:32,492663.0,0.0,0.0
13:58:33,492728.0,0.0,0.0
13:58:33,492626.0,0.0,0.0
13:58:33,492634.0,0.0,0.0
13:58:33,492653.0,0.0,0.0
13:58:33,492626.0,0.0,0.0
13:58:33,492631.0,0.0,0.0
13:58:33,492653.0,0.0,0.0
13:58:33,492684.0,0.0,0.0
13:58:33,492746.0,0.0,0.0
13:58:33,492686.0,0.0,0.0
13:58:33,492689.0,0.0,0.0
13:58:33,492754.0,0.0,0.0
13:58:33,492789.0,0.0,0.0
13:58:33,492864.0,0.0,0.0
13:58:33,492949.0,0.0,0.0
13:58:33,492990.0,0.0,0.0
13:58:33,492941.0,0.0,0.0
13:58:33,492961.0,0.0,0.0
13:58:33,493054.0,0.0,0.0
13:58:33,493043.0,0.0,0.0
13:58:33,493094.0,0.0,0.0
13:58:33,493045.0,0.0,0.0
13:58:33,493074.0,0.0,0.0
13:58:33,493221.0,0.0,0.0
13:58:33,493261.0,0.0,0.0
13:58:33,493333.0,0.0,0.0
13:58:33,493316.0,0.0,0.0
13:58:33,493239.0,0.0,0.0
13:58:33,493281.0,0.0,0.0
13:58:33,493299.0,0.0,0.0
13:58:33,493317.0,0.0,0.0
13:58:33,493468.0,0.0,0.0
13:58:33,493539.0,0.0,0.0
13:58:33,493340.0,0.0,0.0
13:58:33,493233.0,0.0,0.0
13:58:33,493181.0,0.0,0.0
13:58:33,493250.0,0.0,0.0
13:58:33,493236.0,0.0,0.0
13:58:33,493276.0,0.0,0.0
13:58:33,493335.0,0.0,0.0
13:58:33,493388.0,0.0,0.0
13:58:33,493484.0,0.0,0.0
13:58:33,493434.0,0.0,0.0
13:58:33,493394.0,0.0,0.0
13:58:33,493296.0,0.0,0.0
13:58:33,493271.0,0.0,0.0
13:58:33,493278.0,0.0,0.0
13:58:33,493204.0,0.0,0.0
13:58:33,493169.0,0.0,0.0
13:58:33,493101.0,0.0,0.0
13:58:33,493208.0,0.0,0.0
13:58:33,493249.0,0.0,0.0
13:58:33,493230.0,0.0,0.0
13:58:33,493299.0,0.0,0.0
13:58:33,493181.0,0.0,0.0
13:58:33,493213.0,0.0,0.0
13:58:33,493209.0,0.0,0.0
13:58:33,493209.0,0.0,0.0
13:58:33,493283.0,0.0,0.0
13:58:33,493218.0,0.0,0.0
13:58:33,493227.0,0.0,0.0
13:58:33,493263.0,0.0,0.0
13:58:33,493297.0,0.0,0.0
13:58:33,493376.0,0.0,0.0
13:58:33,493350.0,0.0,0.0
13:58:33,493213.0,0.0,0.0
13:58:33,493269.0,0.0,0.0
13:58:33,493398.0,0.0,0.0
13:58:33,493555.0,0.0,0.0
13:58:33,493538.0,0.0,0.0
13:58:33,493426.0,0.0,0.0
13:58:33,493346.0,0.0,0.0
13:58:33,493356.0,0.0,0.0
13:58:33,493398.0,0.0,0.0
13:58:33,493344.0,0.0,0.0
13:58:33,493378.0,0.0,0.0
13:58:33,493353.0,0.0,0.0
13:58:33,493344.0,0.0,0.0
13:58:33,493428.0,0.0,0.0
13:58:33,493490.0,0.0,0.0
13:58:33,493504.0,0.0,0.0
13:58:33,493534.0,0.0,0.0
13:58:33,493541.0,0.0,0.0
13:58:33,493588.0,0.0,0.0
13:58:33,493589.0,0.0,0.0
13:58:33,493694.0,0.0,0.0
13:58:33,493714.0,0.0,0.0
13:58:33,493666.0,0.0,0.0
13:58:33,493789.0,0.0,0.0
13:58:33,493811.0,0.0,0.0
13:58:33,493927.0,0.0,0.0
13:58:33,493969.0,0.0,0.0
13:58:33,493957.0,0.0,0.0
13:58:33,494021.0,0.0,0.0
13:58:33,493975.0,0.0,0.0
13:58:33,494063.0,0.0,0.0
13:58:33,494074.0,0.0,0.0
13:58:33,494046.0,0.0,0.0
13:58:33,494109.0,0.0,0.0
13:58:33,494113.0,0.0,0.0
13:58:33,494326.0,0.0,0.0
13:58:33,494425.0,0.0,0.0
13:58:33,494514.0,0.0,0.0
13:58:33,494499.0,0.0,0.0
13:58:33,494291.0,0.0,0.0
13:58:33,494316.0,0.0,0.0
13:58:33,494311.0,0.0,0.0
13:58:33,494314.0,0.0,0.0
13:58:33,494389.0,0.0,0.0
13:58:33,494308.0,0.0,0.0
13:58:33,494366.0,0.0,0.0
13:58:33,494399.0,0.0,0.0
13:58:33,494388.0,0.0,0.0
13:58:33,494424.0,0.0,0.0
13:58:33,494365.0,0.0,0.0
13:58:33,494439.0,0.0,0.0
13:58:33,494414.0,0.0,0.0
13:58:33,494383.0,0.0,0.0
13:58:33,494479.0,0.0,0.0
13:58:33,494404.0,0.0,0.0
13:58:33,494447.0,0.0,0.0
13:58:33,494442.0,0.0,0.0
13:58:33,494406.0,0.0,0.0
13:58:33,494494.0,0.0,0.0
13:58:33,494456.0,0.0,0.0
13:58:33,494465.0,0.0,0.0
13:58:34,494442.0,0.0,0.0
13:58:34,494349.0,0.0,0.0
13:58:34,494419.0,0.0,0.0
13:58:34,494400.0,0.0,0.0
13:58:34,494429.0,0.0,0.0
13:58:34,494411.0,0.0,0.0
13:58:34,494387.0,0.0,0.0
13:58:34,494478.0,0.0,0.0
13:58:34,494479.0,0.0,0.0
13:58:34,494511.0,0.0,0.0
13:58:34,494567.0,0.0,0.0
13:58:34,494467.0,0.0,0.0
13:58:34,494433.0,0.0,0.0
13:58:34,494618.0,0.0,0.0
13:58:34,494944.0,0.0,0.0
13:58:34,495076.0,0.0,0.0
13:58:34,494949.0,0.0,0.0
13:58:34,494880.0,0.0,0.0
13:58:34,494843.0,0.0,0.0
13:58:34,494887.0,0.0,0.0
13:58:34,494971.0,0.0,0.0
13:58:34,494960.0,0.0,0.0
13:58:34,494999.0,0.0,0.0
13:58:34,495033.0,0.0,0.0
13:58:34,495204.0,0.0,0.0
13:58:34,495321.0,0.0,0.0
13:58:34,495332.0,0.0,0.0
13:58:34,495337.0,0.0,0.0
13:58:34,495346.0,0.0,0.0
13:58:34,495416.0,0.0,0.0
13:58:34,495485.0,0.0,0.0
13:58:34,495511.0,0.0,0.0
13:58:34,495591.0,0.0,0.0
13:58:34,495557.0,0.0,0.0
13:58:34,495614.0,0.0,0.0
13:58:34,495696.0,0.0,0.0
13:58:34,495769.0,0.0,0.0
13:58:34,495861.0,0.0,0.0
13:58:34,495891.0,0.0,0.0
13:58:34,496016.0,0.0,0.0
13:58:34,496109.0,0.0,0.0
13:58:34,496153.0,0.0,0.0
13:58:34,496354.0,0.0,0.0
13:58:34,496467.0,0.0,0.0
13:58:34,496572.0,0.0,0.0
13:58:34,496649.0,0.0,0.0
13:58:34,496664.0,0.0,0.0
13:58:34,496779.0,0.0,0.0
13:58:34,496793.0,0.0,0.0
13:58:34,496999.0,0.0,0.0
13:58:34,497128.0,0.0,0.0
13:58:34,497193.0,0.0,0.0
13:58:34,497343.0,0.0,0.0
13:58:34,497320.0,0.0,0.0
13:58:34,497439.0,0.0,0.0
13:58:34,497513.0,0.0,0.0
13:58:34,497554.0,0.0,0.0
13:58:34,497686.0,0.0,0.0
13:58:34,497691.0,0.0,0.0
13:58:34,497788.0,0.0,0.0
13:58:34,497833.0,0.0,0.0
13:58:34,497942.0,0.0,0.0
13:58:34,498126.0,0.0,0.0
13:58:34,498014.0,0.0,0.0
13:58:34,498090.0,0.0,0.0
13:58:34,498157.0,0.0,0.0
13:58:34,498164.0,0.0,0.0
13:58:34,498249.0,0.0,0.0
13:58:34,498243.0,0.0,0.0
13:58:34,498399.0,0.0,0.0
13:58:34,498446.0,0.0,0.0
13:58:34,498474.0,0.0,0.0
13:58:34,498566.0,0.0,0.0
13:58:34,498551.0,0.0,0.0
13:58:34,498585.0,0.0,0.0
13:58:34,498686.0,0.0,0.0
13:58:34,498809.0,0.0,0.0
13:58:34,498882.0,0.0,0.0
13:58:34,498911.0,0.0,0.0
13:58:34,499079.0,0.0,0.0
13:58:34,499149.0,0.0,0.0
13:58:34,499165.0,0.0,0.0
13:58:34,499209.0,0.0,0.0
13:58:34,499109.0,0.0,0.0
13:58:34,499163.0,0.0,0.0
13:58:34,499175.0,0.0,0.0
13:58:34,499157.0,0.0,0.0
13:58:34,499194.0,0.0,0.0
13:58:34,499132.0,0.0,0.0
13:58:34,499183.0,0.0,0.0
13:58:34,499106.0,0.0,0.0
13:58:34,498956.0,0.0,0.0
13:58:34,498960.0,0.0,0.0
13:58:34,498773.0,0.0,0.0
13:58:34,498653.0,0.0,0.0
13:58:34,498560.0,0.0,0.0
13:58:34,498510.0,0.0,0.0
13:58:34,498481.0,0.0,0.0
13:58:34,498298.0,0.0,0.0
13:58:34,498227.0,0.0,0.0
13:58:34,498086.0,0.0,0.0
13:58:34,497896.0,0.0,0.0
13:58:34,497919.0,0.0,0.0
13:58:34,497736.0,0.0,0.0
13:58:34,497682.0,0.0,0.0
13:58:34,497529.0,0.0,0.0
13:58:34,497369.0,0.0,0.0
13:58:34,497343.0,0.0,0.0
13:58:34,497147.0,0.0,0.0
13:58:34,497117.0,0.0,0.0
13:58:34,497092.0,0.0,0.0
13:58:34,497001.0,0.0,0.0
13:58:34,497079.0,0.0,0.0
13:58:34,496885.0,0.0,0.0
13:58:34,496798.0,0.0,0.0
13:58:34,496676.0,0.0,0.0
13:58:34,496590.0,0.0,0.0
13:58:34,496703.0,0.0,0.0
13:58:34,496611.0,0.0,0.0
13:58:34,496663.0,0.0,0.0
13:58:34,496597.0,0.0,0.0
13:58:34,496533.0,0.0,0.0
13:58:34,496630.0,0.0,0.0
13:58:34,496581.0,0.0,0.0
13:58:34,496633.0,0.0,0.0
13:58:35,496606.0,0.0,0.0
13:58:35,496512.0,0.0,0.0
13:58:35,496559.0,0.0,0.0
13:58:35,496442.0,0.0,0.0
13:58:35,496486.0,0.0,0.0
13:58:35,496464.0,0.0,0.0
13:58:35,496417.0,0.0,0.0
13:58:35,496475.0,0.0,0.0
13:58:35,496348.0,0.0,0.0
13:58:35,496419.0,0.0,0.0
13:58:35,496417.0,0.0,0.0
13:58:35,496368.0,0.0,0.0
13:58:35,496436.0,0.0,0.0
13:58:35,496296.0,0.0,0.0
13:58:35,496286.0,0.0,0.0
13:58:35,496266.0,0.0,0.0
13:58:35,496233.0,0.0,0.0
13:58:35,496260.0,0.0,0.0
13:58:35,496149.0,0.0,0.0
13:58:35,496187.0,0.0,0.0
13:58:35,496176.0,0.0,0.0
13:58:35,496142.0,0.0,0.0
13:58:35,496178.0,0.0,0.0
13:58:35,496128.0,0.0,0.0
13:58:35,496128.0,0.0,0.0
13:58:35,496136.0,0.0,0.0
13:58:35,496084.0,0.0,0.0
13:58:35,496099.0,0.0,0.0
13:58:35,496047.0,0.0,0.0
13:58:35,496014.0,0.0,0.0
13:58:35,496015.0,0.0,0.0
13:58:35,495999.0,0.0,0.0
13:58:35,495969.0,0.0,0.0
13:58:35,495907.0,0.0,0.0
13:58:35,495904.0,0.0,0.0
13:58:35,495898.0,0.0,0.0
13:58:35,495797.0,0.0,0.0
13:58:35,495864.0,0.0,0.0
13:58:35,496064.0,0.0,0.0
13:58:35,496098.0,0.0,0.0
13:58:35,496108.0,0.0,0.0
13:58:35,496139.0,0.0,0.0
13:58:35,496295.0,0.0,0.0
13:58:35,496253.0,0.0,0.0
13:58:35,495986.0,0.0,0.0
13:58:35,496080.0,0.0,0.0
13:58:35,496244.0,0.0,0.0
13:58:35,496404.0,0.0,0.0
13:58:35,496487.0,0.0,0.0
13:58:35,496457.0,0.0,0.0
13:58:35,496419.0,0.0,0.0
13:58:35,496436.0,0.0,0.0
13:58:35,496583.0,0.0,0.0
13:58:35,496669.0,0.0,0.0
13:58:35,496719.0,0.0,0.0
13:58:35,496683.0,0.0,0.0
13:58:35,496573.0,0.0,0.0
13:58:35,496669.0,0.0,0.0
13:58:35,496706.0,0.0,0.0
13:58:35,496779.0,0.0,0.0
13:58:35,496813.0,0.0,0.0
13:58:35,496861.0,0.0,0.0
13:58:35,496961.0,0.0,0.0
13:58:35,496954.0,0.0,0.0
13:58:35,497090.0,0.0,0.0
13:58:35,497166.0,0.0,0.0
13:58:35,497159.0,0.0,0.0
13:58:35,497212.0,0.0,0.0
13:58:35,497162.0,0.0,0.0
13:58:35,497179.0,0.0,0.0
13:58:35,497208.0,0.0,0.0
13:58:35,497199.0,0.0,0.0
13:58:35,497240.0,0.0,0.0
13:58:35,497238.0,0.0,0.0
13:58:35,497288.0,0.0,0.0
13:58:35,497302.0,0.0,0.0
13:58:35,497293.0,0.0,0.0
13:58:35,497317.0,0.0,0.0
13:58:35,497327.0,0.0,0.0
13:58:35,497301.0,0.0,0.0
13:58:35,497292.0,0.0,0.0
13:58:35,497380.0,0.0,0.0
13:58:35,497469.0,0.0,0.0
13:58:35,497422.0,0.0,0.0
13:58:35,497377.0,0.0,0.0
13:58:35,497344.0,0.0,0.0
13:58:35,497322.0,0.0,0.0
13:58:35,497369.0,0.0,0.0
13:58:35,497330.0,0.0,0.0
13:58:35,497301.0,0.0,0.0
13:58:35,497371.0,0.0,0.0
13:58:35,497441.0,0.0,0.0
13:58:35,497587.0,0.0,0.0
13:58:35,497610.0,0.0,0.0
13:58:35,497646.0,0.0,0.0
13:58:35,497650.0,0.0,0.0
13:58:35,497663.0,0.0,0.0
13:58:35,497738.0,0.0,0.0
13:58:35,497724.0,0.0,0.0
13:58:35,497761.0,0.0,0.0
13:58:35,497780.0,0.0,0.0
13:58:35,497758.0,0.0,0.0
13:58:35,497793.0,0.0,0.0
13:58:35,497801.0,0.0,0.0
13:58:35,497878.0,0.0,0.0
13:58:35,497881.0,0.0,0.0
13:58:35,497806.0,0.0,0.0
13:58:35,497825.0,0.0,0.0
13:58:35,497749.0,0.0,0.0
13:58:35,497766.0,0.0,0.0
13:58:35,497710.0,0.0,0.0
13:58:35,497604.0,0.0,0.0
13:58:35,497598.0,0.0,0.0
13:58:35,497541.0,0.0,0.0
13:58:35,497553.0,0.0,0.0
13:58:35,497484.0,0.0,0.0
13:58:35,497389.0,0.0,0.0
13:58:35,497478.0,0.0,0.0
13:58:35,497381.0,0.0,0.0
13:58:35,497399.0,0.0,0.0
13:58:35,497296.0,0.0,0.0
13:58:35,497018.0,0.0,0.0
13:58:35,496957.0,0.0,0.0
13:58:35,496897.0,0.0,0.0
13:58:35,496888.0,0.0,0.0
13:58:36,496875.0,0.0,0.0
13:58:36,496779.0,0.0,0.0
13:58:36,496755.0,0.0,0.0
13:58:36,496648.0,0.0,0.0
13:58:36,496602.0,0.0,0.0
13:58:36,496552.0,0.0,0.0
13:58:36,496434.0,0.0,0.0
13:58:36,496480.0,0.0,0.0
13:58:36,496421.0,0.0,0.0
13:58:36,496392.0,0.0,0.0
13:58:36,496409.0,0.0,0.0
13:58:36,496346.0,0.0,0.0
13:58:36,496405.0,0.0,0.0
13:58:36,496274.0,0.0,0.0
13:58:36,496256.0,0.0,0.0
13:58:36,496242.0,0.0,0.0
13:58:36,496126.0,0.0,0.0
13:58:36,496143.0,0.0,0.0
13:58:36,496060.0,0.0,0.0
13:58:36,496066.0,0.0,0.0
13:58:36,496056.0,0.0,0.0
13:58:36,495949.0,0.0,0.0
13:58:36,496013.0,0.0,0.0
13:58:36,496016.0,0.0,0.0
13:58:36,496032.0,0.0,0.0
13:58:36,496034.0,0.0,0.0
13:58:36,495922.0,0.0,0.0
13:58:36,495941.0,0.0,0.0
13:58:36,495867.0,0.0,0.0
13:58:36,495817.0,0.0,0.0
13:58:36,495794.0,0.0,0.0
13:58:36,495679.0,0.0,0.0
13:58:36,495648.0,0.0,0.0
13:58:36,495566.0,0.0,0.0
13:58:36,495511.0,0.0,0.0
13:58:36,495406.0,0.0,0.0
13:58:36,495283.0,0.0,0.0
13:58:36,495372.0,0.0,0.0
13:58:36,495328.0,0.0,0.0
13:58:36,495244.0,0.0,0.0
13:58:36,495212.0,0.0,0.0
13:58:36,495072.0,0.0,0.0
13:58:36,494998.0,0.0,0.0
13:58:36,494919.0,0.0,0.0
13:58:36,494908.0,0.0,0.0
13:58:36,494929.0,0.0,0.0
13:58:36,494819.0,0.0,0.0
13:58:36,494848.0,0.0,0.0
13:58:36,494826.0,0.0,0.0
13:58:36,494809.0,0.0,0.0
13:58:36,494849.0,0.0,0.0
13:58:36,494763.0,0.0,0.0
13:58:36,494690.0,0.0,0.0
13:58:36,494594.0,0.0,0.0
13:58:36,494530.0,0.0,0.0
13:58:36,494474.0,0.0,0.0
13:58:36,494324.0,0.0,0.0
13:58:36,494253.0,0.0,0.0
13:58:36,494353.0,0.0,0.0
13:58:36,494408.0,0.0,0.0
13:58:36,494480.0,0.0,0.0
13:58:36,494328.0,0.0,0.0
13:58:36,494196.0,0.0,0.0
13:58:36,494144.0,0.0,0.0
13:58:36,494100.0,0.0,0.0
13:58:36,494037.0,0.0,0.0
13:58:36,493969.0,0.0,0.0
13:58:36,493964.0,0.0,0.0
13:58:36,493921.0,0.0,0.0
13:58:36,493913.0,0.0,0.0
13:58:36,493911.0,0.0,0.0
13:58:36,493892.0,0.0,0.0
13:58:36,493917.0,0.0,0.0
13:58:36,493899.0,0.0,0.0
13:58:36,493764.0,0.0,0.0
13:58:36,493731.0,0.0,0.0
13:58:36,493684.0,0.0,0.0
13:58:36,493664.0,0.0,0.0
13:58:36,493674.0,0.0,0.0
13:58:36,493634.0,0.0,0.0
13:58:36,493581.0,0.0,0.0
13:58:36,493516.0,0.0,0.0
13:58:36,493496.0,0.0,0.0
13:58:36,493470.0,0.0,0.0
13:58:36,493474.0,0.0,0.0
13:58:36,493524.0,0.0,0.0
13:58:36,493476.0,0.0,0.0
13:58:36,493458.0,0.0,0.0
13:58:36,493511.0,0.0,0.0
13:58:36,493478.0,0.0,0.0
13:58:36,493481.0,0.0,0.0
13:58:36,493428.0,0.0,0.0
13:58:36,493348.0,0.0,0.0
13:58:36,493282.0,0.0,0.0
13:58:36,493249.0,0.0,0.0
13:58:36,493249.0,0.0,0.0
13:58:36,493191.0,0.0,0.0
13:58:36,493109.0,0.0,0.0
13:58:36,493118.0,0.0,0.0
13:58:36,493076.0,0.0,0.0
13:58:36,493107.0,0.0,0.0
13:58:36,493099.0,0.0,0.0
13:58:36,493058.0,0.0,0.0
13:58:36,493012.0,0.0,0.0
13:58:36,492961.0,0.0,0.0
13:58:36,492963.0,0.0,0.0
13:58:36,492921.0,0.0,0.0
13:58:36,492868.0,0.0,0.0
13:58:36,492883.0,0.0,0.0
13:58:36,492834.0,0.0,0.0
13:58:36,492826.0,0.0,0.0
13:58:36,492796.0,0.0,0.0
13:58:36,492758.0,0.0,0.0
