TimeStramp,ECG,SpO2,Respiration
10:04:59,573373.0,0.0,0.0
10:05:00,573481.0,0.0,0.0
10:05:00,573042.0,0.0,0.0
10:05:00,573819.0,0.0,0.0
10:05:00,573248.0,0.0,0.0
10:05:00,573517.0,0.0,0.0
10:05:00,573642.0,0.0,0.0
10:05:00,573030.0,0.0,0.0
10:05:00,573969.0,0.0,0.0
10:05:00,573382.0,0.0,0.0
10:05:00,573848.0,0.0,0.0
10:05:00,574026.0,0.0,0.0
10:05:00,573280.0,0.0,0.0
10:05:00,574177.0,0.0,0.0
10:05:00,573483.0,0.0,0.0
10:05:00,573918.0,0.0,0.0
10:05:00,574239.0,0.0,0.0
10:05:00,573423.0,0.0,0.0
10:05:00,574229.0,0.0,0.0
10:05:00,573461.0,0.0,0.0
10:05:00,573842.0,0.0,0.0
10:05:00,574092.0,0.0,0.0
10:05:00,573314.0,0.0,0.0
10:05:00,574069.0,0.0,0.0
10:05:00,573376.0,0.0,0.0
10:05:00,573889.0,0.0,0.0
10:05:00,574182.0,0.0,0.0
10:05:00,573507.0,0.0,0.0
10:05:00,574261.0,0.0,0.0
10:05:00,573341.0,0.0,0.0
10:05:00,573658.0,0.0,0.0
10:05:00,573961.0,0.0,0.0
10:05:00,573332.0,0.0,0.0
10:05:00,574370.0,0.0,0.0
10:05:00,573500.0,0.0,0.0
10:05:00,573719.0,0.0,0.0
10:05:00,573923.0,0.0,0.0
10:05:00,573291.0,0.0,0.0
10:05:00,574302.0,0.0,0.0
10:05:00,573504.0,0.0,0.0
10:05:00,573763.0,0.0,0.0
10:05:00,573898.0,0.0,0.0
10:05:00,573149.0,0.0,0.0
10:05:00,574176.0,0.0,0.0
10:05:00,573444.0,0.0,0.0
10:05:00,573712.0,0.0,0.0
10:05:00,573775.0,0.0,0.0
10:05:00,572959.0,0.0,0.0
10:05:00,573942.0,0.0,0.0
10:05:00,573195.0,0.0,0.0
10:05:00,573597.0,0.0,0.0
10:05:00,573757.0,0.0,0.0
10:05:00,572893.0,0.0,0.0
10:05:00,573774.0,0.0,0.0
10:05:00,573059.0,0.0,0.0
10:05:00,573463.0,0.0,0.0
10:05:00,573778.0,0.0,0.0
10:05:00,572966.0,0.0,0.0
10:05:00,573772.0,0.0,0.0
10:05:00,573020.0,0.0,0.0
10:05:00,573439.0,0.0,0.0
10:05:00,573789.0,0.0,0.0
10:05:00,573026.0,0.0,0.0
10:05:00,573901.0,0.0,0.0
10:05:00,573003.0,0.0,0.0
10:05:00,573271.0,0.0,0.0
10:05:00,573633.0,0.0,0.0
10:05:00,572936.0,0.0,0.0
10:05:00,573944.0,0.0,0.0
10:05:00,573130.0,0.0,0.0
10:05:00,573352.0,0.0,0.0
10:05:00,573624.0,0.0,0.0
10:05:00,572951.0,0.0,0.0
10:05:00,574028.0,0.0,0.0
10:05:00,573198.0,0.0,0.0
10:05:00,573503.0,0.0,0.0
10:05:00,573678.0,0.0,0.0
10:05:00,572955.0,0.0,0.0
10:05:00,573989.0,0.0,0.0
10:05:00,573243.0,0.0,0.0
10:05:00,573543.0,0.0,0.0
10:05:00,573651.0,0.0,0.0
10:05:00,572879.0,0.0,0.0
10:05:00,573861.0,0.0,0.0
10:05:00,573147.0,0.0,0.0
10:05:00,573536.0,0.0,0.0
10:05:00,573732.0,0.0,0.0
10:05:00,572911.0,0.0,0.0
10:05:00,573821.0,0.0,0.0
10:05:00,573046.0,0.0,0.0
10:05:00,573480.0,0.0,0.0
10:05:00,573741.0,0.0,0.0
10:05:00,572873.0,0.0,0.0
10:05:00,573738.0,0.0,0.0
10:05:00,572936.0,0.0,0.0
10:05:00,573319.0,0.0,0.0
10:05:00,573678.0,0.0,0.0
10:05:00,572877.0,0.0,0.0
10:05:00,573790.0,0.0,0.0
10:05:00,572892.0,0.0,0.0
10:05:00,573102.0,0.0,0.0
10:05:00,573448.0,0.0,0.0
10:05:00,572687.0,0.0,0.0
10:05:00,573823.0,0.0,0.0
10:05:00,573034.0,0.0,0.0
10:05:00,573206.0,0.0,0.0
10:05:00,573449.0,0.0,0.0
10:05:00,572576.0,0.0,0.0
10:05:00,573537.0,0.0,0.0
10:05:00,572756.0,0.0,0.0
10:05:00,572927.0,0.0,0.0
10:05:00,573108.0,0.0,0.0
10:05:00,572436.0,0.0,0.0
10:05:00,573484.0,0.0,0.0
10:05:00,572708.0,0.0,0.0
10:05:00,573024.0,0.0,0.0
10:05:00,573190.0,0.0,0.0
10:05:00,572371.0,0.0,0.0
10:05:00,573331.0,0.0,0.0
10:05:00,572586.0,0.0,0.0
10:05:00,572875.0,0.0,0.0
10:05:00,572979.0,0.0,0.0
10:05:00,572180.0,0.0,0.0
10:05:00,573051.0,0.0,0.0
10:05:00,572289.0,0.0,0.0
10:05:00,572736.0,0.0,0.0
10:05:01,573023.0,0.0,0.0
10:05:01,572193.0,0.0,0.0
10:05:01,573061.0,0.0,0.0
10:05:01,572248.0,0.0,0.0
10:05:01,572554.0,0.0,0.0
10:05:01,572938.0,0.0,0.0
10:05:01,572138.0,0.0,0.0
10:05:01,572996.0,0.0,0.0
10:05:01,572161.0,0.0,0.0
10:05:01,572434.0,0.0,0.0
10:05:01,572815.0,0.0,0.0
10:05:01,572023.0,0.0,0.0
10:05:01,573042.0,0.0,0.0
10:05:01,572166.0,0.0,0.0
10:05:01,572328.0,0.0,0.0
10:05:01,572658.0,0.0,0.0
10:05:01,571946.0,0.0,0.0
10:05:01,572973.0,0.0,0.0
10:05:01,572164.0,0.0,0.0
10:05:01,572304.0,0.0,0.0
10:05:01,572536.0,0.0,0.0
10:05:01,571840.0,0.0,0.0
10:05:01,572868.0,0.0,0.0
10:05:01,572130.0,0.0,0.0
10:05:01,572304.0,0.0,0.0
10:05:01,572503.0,0.0,0.0
10:05:01,571731.0,0.0,0.0
10:05:01,572749.0,0.0,0.0
10:05:01,572034.0,0.0,0.0
10:05:01,572379.0,0.0,0.0
10:05:01,572530.0,0.0,0.0
10:05:01,571694.0,0.0,0.0
10:05:01,572640.0,0.0,0.0
10:05:01,571963.0,0.0,0.0
10:05:01,572267.0,0.0,0.0
10:05:01,572562.0,0.0,0.0
10:05:01,571704.0,0.0,0.0
10:05:01,572577.0,0.0,0.0
10:05:01,571791.0,0.0,0.0
10:05:01,572227.0,0.0,0.0
10:05:01,572555.0,0.0,0.0
10:05:01,571688.0,0.0,0.0
10:05:01,572540.0,0.0,0.0
10:05:01,571703.0,0.0,0.0
10:05:01,572023.0,0.0,0.0
10:05:01,572393.0,0.0,0.0
10:05:01,571664.0,0.0,0.0
10:05:01,572526.0,0.0,0.0
10:05:01,571642.0,0.0,0.0
10:05:01,571885.0,0.0,0.0
10:05:01,572283.0,0.0,0.0
10:05:01,571536.0,0.0,0.0
10:05:01,572544.0,0.0,0.0
10:05:01,571653.0,0.0,0.0
10:05:01,571799.0,0.0,0.0
10:05:01,572121.0,0.0,0.0
10:05:01,571313.0,0.0,0.0
10:05:01,572317.0,0.0,0.0
10:05:01,571676.0,0.0,0.0
10:05:01,572050.0,0.0,0.0
10:05:01,572331.0,0.0,0.0
10:05:01,571428.0,0.0,0.0
10:05:01,572240.0,0.0,0.0
10:05:01,571415.0,0.0,0.0
10:05:01,571696.0,0.0,0.0
10:05:01,571966.0,0.0,0.0
10:05:01,571100.0,0.0,0.0
10:05:01,572056.0,0.0,0.0
10:05:01,571356.0,0.0,0.0
10:05:01,571733.0,0.0,0.0
10:05:01,571998.0,0.0,0.0
10:05:01,571112.0,0.0,0.0
10:05:01,571966.0,0.0,0.0
10:05:01,571159.0,0.0,0.0
10:05:01,571506.0,0.0,0.0
10:05:01,571903.0,0.0,0.0
10:05:01,571104.0,0.0,0.0
10:05:01,571973.0,0.0,0.0
10:05:01,571128.0,0.0,0.0
10:05:01,571453.0,0.0,0.0
10:05:01,571849.0,0.0,0.0
10:05:01,571078.0,0.0,0.0
10:05:01,572034.0,0.0,0.0
10:05:01,571181.0,0.0,0.0
10:05:01,571363.0,0.0,0.0
10:05:01,571788.0,0.0,0.0
10:05:01,571059.0,0.0,0.0
10:05:01,572139.0,0.0,0.0
10:05:01,571380.0,0.0,0.0
10:05:01,571563.0,0.0,0.0
10:05:01,571898.0,0.0,0.0
10:05:01,571132.0,0.0,0.0
10:05:01,572235.0,0.0,0.0
10:05:01,571528.0,0.0,0.0
10:05:01,571718.0,0.0,0.0
10:05:01,572073.0,0.0,0.0
10:05:01,571248.0,0.0,0.0
10:05:01,572291.0,0.0,0.0
10:05:01,571662.0,0.0,0.0
10:05:01,571902.0,0.0,0.0
10:05:01,572205.0,0.0,0.0
10:05:01,571351.0,0.0,0.0
10:05:01,572356.0,0.0,0.0
10:05:01,571696.0,0.0,0.0
10:05:01,572077.0,0.0,0.0
10:05:01,572445.0,0.0,0.0
10:05:01,571515.0,0.0,0.0
10:05:01,572434.0,0.0,0.0
10:05:01,571689.0,0.0,0.0
10:05:01,572047.0,0.0,0.0
10:05:01,572428.0,0.0,0.0
10:05:01,571628.0,0.0,0.0
10:05:01,572504.0,0.0,0.0
10:05:01,571685.0,0.0,0.0
10:05:01,572018.0,0.0,0.0
10:05:01,572441.0,0.0,0.0
10:05:01,571714.0,0.0,0.0
10:05:01,572646.0,0.0,0.0
10:05:01,571764.0,0.0,0.0
10:05:01,572057.0,0.0,0.0
10:05:01,572478.0,0.0,0.0
10:05:01,571727.0,0.0,0.0
10:05:01,572768.0,0.0,0.0
10:05:01,571967.0,0.0,0.0
10:05:01,572086.0,0.0,0.0
10:05:02,572500.0,0.0,0.0
10:05:02,571713.0,0.0,0.0
10:05:02,572791.0,0.0,0.0
10:05:02,572031.0,0.0,0.0
10:05:02,572157.0,0.0,0.0
10:05:02,572543.0,0.0,0.0
10:05:02,571738.0,0.0,0.0
10:05:02,572759.0,0.0,0.0
10:05:02,572154.0,0.0,0.0
10:05:02,572352.0,0.0,0.0
10:05:02,572661.0,0.0,0.0
10:05:02,571789.0,0.0,0.0
10:05:02,572719.0,0.0,0.0
10:05:02,572118.0,0.0,0.0
10:05:02,572450.0,0.0,0.0
10:05:02,572797.0,0.0,0.0
10:05:02,571853.0,0.0,0.0
10:05:02,572715.0,0.0,0.0
10:05:02,572112.0,0.0,0.0
10:05:02,572679.0,0.0,0.0
10:05:02,573112.0,0.0,0.0
10:05:02,572254.0,0.0,0.0
10:05:02,572982.0,0.0,0.0
10:05:02,572119.0,0.0,0.0
10:05:02,572406.0,0.0,0.0
10:05:02,572850.0,0.0,0.0
10:05:02,572178.0,0.0,0.0
10:05:02,573208.0,0.0,0.0
10:05:02,572403.0,0.0,0.0
10:05:02,572608.0,0.0,0.0
10:05:02,572999.0,0.0,0.0
10:05:02,572341.0,0.0,0.0
10:05:02,573409.0,0.0,0.0
10:05:02,572571.0,0.0,0.0
10:05:02,572707.0,0.0,0.0
10:05:02,573054.0,0.0,0.0
10:05:02,572279.0,0.0,0.0
10:05:02,573313.0,0.0,0.0
10:05:02,572612.0,0.0,0.0
10:05:02,572781.0,0.0,0.0
10:05:02,573046.0,0.0,0.0
10:05:02,572151.0,0.0,0.0
10:05:02,573201.0,0.0,0.0
10:05:02,572502.0,0.0,0.0
10:05:02,572742.0,0.0,0.0
10:05:02,573108.0,0.0,0.0
10:05:02,572165.0,0.0,0.0
10:05:02,573137.0,0.0,0.0
10:05:02,572574.0,0.0,0.0
10:05:02,572811.0,0.0,0.0
10:05:02,573260.0,0.0,0.0
10:05:02,572304.0,0.0,0.0
10:05:02,573185.0,0.0,0.0
10:05:02,572496.0,0.0,0.0
10:05:02,572826.0,0.0,0.0
10:05:02,573246.0,0.0,0.0
10:05:02,572351.0,0.0,0.0
10:05:02,573247.0,0.0,0.0
10:05:02,572474.0,0.0,0.0
10:05:02,572724.0,0.0,0.0
10:05:02,573186.0,0.0,0.0
10:05:02,572433.0,0.0,0.0
10:05:02,573360.0,0.0,0.0
10:05:02,572531.0,0.0,0.0
10:05:02,572729.0,0.0,0.0
10:05:02,573135.0,0.0,0.0
10:05:02,572412.0,0.0,0.0
10:05:02,573493.0,0.0,0.0
10:05:02,572614.0,0.0,0.0
10:05:02,572721.0,0.0,0.0
10:05:02,573071.0,0.0,0.0
10:05:02,572294.0,0.0,0.0
10:05:02,573318.0,0.0,0.0
10:05:02,572641.0,0.0,0.0
10:05:02,572813.0,0.0,0.0
10:05:02,573126.0,0.0,0.0
10:05:02,572257.0,0.0,0.0
10:05:02,573298.0,0.0,0.0
10:05:02,572668.0,0.0,0.0
10:05:02,572885.0,0.0,0.0
10:05:02,573232.0,0.0,0.0
10:05:02,572298.0,0.0,0.0
10:05:02,573266.0,0.0,0.0
10:05:02,572572.0,0.0,0.0
10:05:02,572824.0,0.0,0.0
10:05:02,573224.0,0.0,0.0
10:05:02,572266.0,0.0,0.0
10:05:02,573228.0,0.0,0.0
10:05:02,572593.0,0.0,0.0
10:05:02,572869.0,0.0,0.0
10:05:02,573299.0,0.0,0.0
10:05:02,572368.0,0.0,0.0
10:05:02,573255.0,0.0,0.0
10:05:02,572559.0,0.0,0.0
10:05:02,572813.0,0.0,0.0
10:05:02,573246.0,0.0,0.0
10:05:02,572456.0,0.0,0.0
10:05:02,573309.0,0.0,0.0
10:05:02,572438.0,0.0,0.0
10:05:02,572601.0,0.0,0.0
10:05:02,573078.0,0.0,0.0
10:05:02,572565.0,0.0,0.0
10:05:02,573638.0,0.0,0.0
10:05:02,572750.0,0.0,0.0
10:05:02,572854.0,0.0,0.0
10:05:02,573059.0,0.0,0.0
10:05:02,572326.0,0.0,0.0
10:05:02,573353.0,0.0,0.0
10:05:02,572585.0,0.0,0.0
10:05:02,572722.0,0.0,0.0
10:05:02,573101.0,0.0,0.0
10:05:02,572294.0,0.0,0.0
10:05:02,573331.0,0.0,0.0
10:05:02,572679.0,0.0,0.0
10:05:02,572848.0,0.0,0.0
10:05:02,573137.0,0.0,0.0
10:05:02,572252.0,0.0,0.0
10:05:02,573274.0,0.0,0.0
10:05:02,572622.0,0.0,0.0
10:05:02,572884.0,0.0,0.0
10:05:02,573266.0,0.0,0.0
10:05:02,572288.0,0.0,0.0
10:05:02,573197.0,0.0,0.0
10:05:02,572546.0,0.0,0.0
10:05:02,572794.0,0.0,0.0
10:05:03,573261.0,0.0,0.0
10:05:03,572335.0,0.0,0.0
10:05:03,573189.0,0.0,0.0
10:05:03,572491.0,0.0,0.0
10:05:03,572740.0,0.0,0.0
10:05:03,573236.0,0.0,0.0
10:05:03,572450.0,0.0,0.0
10:05:03,573371.0,0.0,0.0
10:05:03,572524.0,0.0,0.0
10:05:03,572689.0,0.0,0.0
10:05:03,573155.0,0.0,0.0
10:05:03,572470.0,0.0,0.0
10:05:03,573419.0,0.0,0.0
10:05:03,572583.0,0.0,0.0
10:05:03,572754.0,0.0,0.0
10:05:03,573156.0,0.0,0.0
10:05:03,572416.0,0.0,0.0
10:05:03,573441.0,0.0,0.0
10:05:03,572696.0,0.0,0.0
10:05:03,572847.0,0.0,0.0
10:05:03,573174.0,0.0,0.0
10:05:03,572353.0,0.0,0.0
10:05:03,573388.0,0.0,0.0
10:05:03,572684.0,0.0,0.0
10:05:03,572826.0,0.0,0.0
10:05:03,573203.0,0.0,0.0
10:05:03,572304.0,0.0,0.0
10:05:03,573300.0,0.0,0.0
10:05:03,572657.0,0.0,0.0
10:05:03,572840.0,0.0,0.0
10:05:03,573159.0,0.0,0.0
10:05:03,572234.0,0.0,0.0
10:05:03,573214.0,0.0,0.0
10:05:03,572538.0,0.0,0.0
10:05:03,572768.0,0.0,0.0
10:05:03,573204.0,0.0,0.0
10:05:03,572183.0,0.0,0.0
10:05:03,573118.0,0.0,0.0
10:05:03,572481.0,0.0,0.0
10:05:03,572696.0,0.0,0.0
10:05:03,573156.0,0.0,0.0
10:05:03,572244.0,0.0,0.0
10:05:03,573106.0,0.0,0.0
10:05:03,572396.0,0.0,0.0
10:05:03,572631.0,0.0,0.0
10:05:03,573138.0,0.0,0.0
10:05:03,572284.0,0.0,0.0
10:05:03,573154.0,0.0,0.0
10:05:03,572342.0,0.0,0.0
10:05:03,572513.0,0.0,0.0
10:05:03,572962.0,0.0,0.0
10:05:03,572193.0,0.0,0.0
10:05:03,573153.0,0.0,0.0
10:05:03,572324.0,0.0,0.0
10:05:03,572580.0,0.0,0.0
10:05:03,573036.0,0.0,0.0
10:05:03,572284.0,0.0,0.0
10:05:03,573271.0,0.0,0.0
10:05:03,572405.0,0.0,0.0
10:05:03,572531.0,0.0,0.0
10:05:03,572943.0,0.0,0.0
10:05:03,572139.0,0.0,0.0
10:05:03,573219.0,0.0,0.0
10:05:03,572575.0,0.0,0.0
10:05:03,572716.0,0.0,0.0
10:05:03,573074.0,0.0,0.0
10:05:03,572179.0,0.0,0.0
10:05:03,573198.0,0.0,0.0
10:05:03,572601.0,0.0,0.0
10:05:03,572799.0,0.0,0.0
10:05:03,573200.0,0.0,0.0
10:05:03,572226.0,0.0,0.0
10:05:03,573191.0,0.0,0.0
10:05:03,572550.0,0.0,0.0
10:05:03,572717.0,0.0,0.0
10:05:03,573223.0,0.0,0.0
10:05:03,572283.0,0.0,0.0
10:05:03,573164.0,0.0,0.0
10:05:03,572437.0,0.0,0.0
10:05:03,572592.0,0.0,0.0
10:05:03,573084.0,0.0,0.0
10:05:03,572213.0,0.0,0.0
10:05:03,573087.0,0.0,0.0
10:05:03,572323.0,0.0,0.0
10:05:03,572551.0,0.0,0.0
10:05:03,573004.0,0.0,0.0
10:05:03,572198.0,0.0,0.0
10:05:03,573119.0,0.0,0.0
10:05:03,572343.0,0.0,0.0
10:05:03,572468.0,0.0,0.0
10:05:03,572852.0,0.0,0.0
10:05:03,572121.0,0.0,0.0
10:05:03,573086.0,0.0,0.0
10:05:03,572329.0,0.0,0.0
10:05:03,572438.0,0.0,0.0
10:05:03,572765.0,0.0,0.0
10:05:03,571935.0,0.0,0.0
10:05:03,573006.0,0.0,0.0
10:05:03,572294.0,0.0,0.0
10:05:03,572374.0,0.0,0.0
10:05:03,572679.0,0.0,0.0
10:05:03,571778.0,0.0,0.0
10:05:03,572773.0,0.0,0.0
10:05:03,572142.0,0.0,0.0
10:05:03,572309.0,0.0,0.0
10:05:03,572665.0,0.0,0.0
10:05:03,571696.0,0.0,0.0
10:05:03,572640.0,0.0,0.0
10:05:03,572059.0,0.0,0.0
10:05:03,572240.0,0.0,0.0
10:05:03,572709.0,0.0,0.0
10:05:03,571672.0,0.0,0.0
10:05:03,572550.0,0.0,0.0
10:05:03,571886.0,0.0,0.0
10:05:03,572097.0,0.0,0.0
10:05:03,572596.0,0.0,0.0
10:05:03,571726.0,0.0,0.0
10:05:03,572571.0,0.0,0.0
10:05:03,571896.0,0.0,0.0
10:05:03,572041.0,0.0,0.0
10:05:03,572564.0,0.0,0.0
10:05:03,571754.0,0.0,0.0
10:05:03,572678.0,0.0,0.0
10:05:03,571930.0,0.0,0.0
10:05:04,572058.0,0.0,0.0
10:05:04,572500.0,0.0,0.0
10:05:04,571732.0,0.0,0.0
10:05:04,572746.0,0.0,0.0
10:05:04,571981.0,0.0,0.0
10:05:04,571980.0,0.0,0.0
10:05:04,572300.0,0.0,0.0
10:05:04,571566.0,0.0,0.0
10:05:04,572761.0,0.0,0.0
10:05:04,572156.0,0.0,0.0
10:05:04,572208.0,0.0,0.0
10:05:04,572488.0,0.0,0.0
10:05:04,571441.0,0.0,0.0
10:05:04,572399.0,0.0,0.0
10:05:04,571786.0,0.0,0.0
10:05:04,571998.0,0.0,0.0
10:05:04,572369.0,0.0,0.0
10:05:04,571446.0,0.0,0.0
10:05:04,572381.0,0.0,0.0
10:05:04,571800.0,0.0,0.0
10:05:04,571974.0,0.0,0.0
10:05:04,572438.0,0.0,0.0
10:05:04,571416.0,0.0,0.0
10:05:04,572359.0,0.0,0.0
10:05:04,571708.0,0.0,0.0
10:05:04,571868.0,0.0,0.0
10:05:04,572361.0,0.0,0.0
10:05:04,571423.0,0.0,0.0
10:05:04,572299.0,0.0,0.0
10:05:04,571629.0,0.0,0.0
10:05:04,571753.0,0.0,0.0
10:05:04,572290.0,0.0,0.0
10:05:04,571513.0,0.0,0.0
10:05:04,572341.0,0.0,0.0
10:05:04,571549.0,0.0,0.0
10:05:04,571653.0,0.0,0.0
10:05:04,572141.0,0.0,0.0
10:05:04,571371.0,0.0,0.0
10:05:04,572376.0,0.0,0.0
10:05:04,571529.0,0.0,0.0
10:05:04,571619.0,0.0,0.0
10:05:04,572064.0,0.0,0.0
10:05:04,571242.0,0.0,0.0
10:05:04,572201.0,0.0,0.0
10:05:04,571505.0,0.0,0.0
10:05:04,571533.0,0.0,0.0
10:05:04,571856.0,0.0,0.0
10:05:04,571030.0,0.0,0.0
10:05:04,572072.0,0.0,0.0
10:05:04,571382.0,0.0,0.0
10:05:04,571508.0,0.0,0.0
10:05:04,571864.0,0.0,0.0
10:05:04,570898.0,0.0,0.0
10:05:04,571862.0,0.0,0.0
10:05:04,571258.0,0.0,0.0
10:05:04,571413.0,0.0,0.0
10:05:04,571817.0,0.0,0.0
10:05:04,570808.0,0.0,0.0
10:05:04,571753.0,0.0,0.0
10:05:04,571136.0,0.0,0.0
10:05:04,571293.0,0.0,0.0
10:05:04,571873.0,0.0,0.0
10:05:04,570828.0,0.0,0.0
10:05:04,571671.0,0.0,0.0
10:05:04,571030.0,0.0,0.0
10:05:04,571183.0,0.0,0.0
10:05:04,571739.0,0.0,0.0
10:05:04,570814.0,0.0,0.0
10:05:04,571672.0,0.0,0.0
10:05:04,570989.0,0.0,0.0
10:05:04,571080.0,0.0,0.0
10:05:04,571577.0,0.0,0.0
10:05:04,570768.0,0.0,0.0
10:05:04,571725.0,0.0,0.0
10:05:04,570928.0,0.0,0.0
10:05:04,571011.0,0.0,0.0
10:05:04,571465.0,0.0,0.0
10:05:04,570651.0,0.0,0.0
10:05:04,571618.0,0.0,0.0
10:05:04,570911.0,0.0,0.0
10:05:04,570966.0,0.0,0.0
10:05:04,571336.0,0.0,0.0
10:05:04,570553.0,0.0,0.0
10:05:04,571521.0,0.0,0.0
10:05:04,570832.0,0.0,0.0
10:05:04,570867.0,0.0,0.0
10:05:04,571210.0,0.0,0.0
10:05:04,570313.0,0.0,0.0
10:05:04,571413.0,0.0,0.0
10:05:04,570881.0,0.0,0.0
10:05:04,571042.0,0.0,0.0
10:05:04,571374.0,0.0,0.0
10:05:04,570247.0,0.0,0.0
10:05:04,571119.0,0.0,0.0
10:05:04,570539.0,0.0,0.0
10:05:04,570686.0,0.0,0.0
10:05:04,571176.0,0.0,0.0
10:05:04,570163.0,0.0,0.0
10:05:04,571096.0,0.0,0.0
10:05:04,570462.0,0.0,0.0
10:05:04,570542.0,0.0,0.0
10:05:04,571100.0,0.0,0.0
10:05:04,570148.0,0.0,0.0
10:05:04,570992.0,0.0,0.0
10:05:04,570348.0,0.0,0.0
10:05:04,570451.0,0.0,0.0
10:05:04,571004.0,0.0,0.0
10:05:04,570174.0,0.0,0.0
10:05:04,571032.0,0.0,0.0
10:05:04,570278.0,0.0,0.0
10:05:04,570280.0,0.0,0.0
10:05:04,570795.0,0.0,0.0
10:05:04,569993.0,0.0,0.0
10:05:04,570948.0,0.0,0.0
10:05:04,570154.0,0.0,0.0
10:05:04,570203.0,0.0,0.0
10:05:04,570687.0,0.0,0.0
10:05:04,569939.0,0.0,0.0
10:05:04,570952.0,0.0,0.0
10:05:04,570299.0,0.0,0.0
10:05:04,570313.0,0.0,0.0
10:05:04,570676.0,0.0,0.0
10:05:04,569848.0,0.0,0.0
10:05:04,570894.0,0.0,0.0
10:05:04,570307.0,0.0,0.0
10:05:05,570413.0,0.0,0.0
10:05:05,570696.0,0.0,0.0
10:05:05,569781.0,0.0,0.0
10:05:05,570824.0,0.0,0.0
10:05:05,570227.0,0.0,0.0
10:05:05,570378.0,0.0,0.0
10:05:05,570822.0,0.0,0.0
10:05:05,569864.0,0.0,0.0
10:05:05,570853.0,0.0,0.0
10:05:05,570279.0,0.0,0.0
10:05:05,570369.0,0.0,0.0
10:05:05,570937.0,0.0,0.0
10:05:05,569870.0,0.0,0.0
10:05:05,570754.0,0.0,0.0
10:05:05,570129.0,0.0,0.0
10:05:05,570206.0,0.0,0.0
10:05:05,570775.0,0.0,0.0
10:05:05,569884.0,0.0,0.0
10:05:05,570766.0,0.0,0.0
10:05:05,570129.0,0.0,0.0
10:05:05,570211.0,0.0,0.0
10:05:05,570824.0,0.0,0.0
10:05:05,569943.0,0.0,0.0
10:05:05,570828.0,0.0,0.0
10:05:05,570106.0,0.0,0.0
10:05:05,570174.0,0.0,0.0
10:05:05,570662.0,0.0,0.0
10:05:05,569823.0,0.0,0.0
10:05:05,570864.0,0.0,0.0
10:05:05,570128.0,0.0,0.0
10:05:05,570213.0,0.0,0.0
10:05:05,570673.0,0.0,0.0
10:05:05,569804.0,0.0,0.0
10:05:05,570801.0,0.0,0.0
10:05:05,570179.0,0.0,0.0
10:05:05,570174.0,0.0,0.0
10:05:05,570548.0,0.0,0.0
10:05:05,569687.0,0.0,0.0
10:05:05,570723.0,0.0,0.0
10:05:05,570081.0,0.0,0.0
10:05:05,570219.0,0.0,0.0
10:05:05,570632.0,0.0,0.0
10:05:05,569616.0,0.0,0.0
10:05:05,570549.0,0.0,0.0
10:05:05,569960.0,0.0,0.0
10:05:05,570038.0,0.0,0.0
10:05:05,570634.0,0.0,0.0
10:05:05,569743.0,0.0,0.0
10:05:05,570672.0,0.0,0.0
10:05:05,570062.0,0.0,0.0
10:05:05,570011.0,0.0,0.0
10:05:05,570486.0,0.0,0.0
10:05:05,569518.0,0.0,0.0
10:05:05,570428.0,0.0,0.0
10:05:05,569816.0,0.0,0.0
10:05:05,569913.0,0.0,0.0
10:05:05,570473.0,0.0,0.0
10:05:05,569566.0,0.0,0.0
10:05:05,570438.0,0.0,0.0
10:05:05,569756.0,0.0,0.0
10:05:05,569741.0,0.0,0.0
10:05:05,570318.0,0.0,0.0
10:05:05,569524.0,0.0,0.0
10:05:05,570474.0,0.0,0.0
10:05:05,569683.0,0.0,0.0
10:05:05,569654.0,0.0,0.0
10:05:05,570191.0,0.0,0.0
10:05:05,569369.0,0.0,0.0
10:05:05,570293.0,0.0,0.0
10:05:05,569591.0,0.0,0.0
10:05:05,569578.0,0.0,0.0
10:05:05,569993.0,0.0,0.0
10:05:05,569133.0,0.0,0.0
10:05:05,570084.0,0.0,0.0
10:05:05,569501.0,0.0,0.0
10:05:05,569639.0,0.0,0.0
10:05:05,570003.0,0.0,0.0
10:05:05,569073.0,0.0,0.0
10:05:05,570072.0,0.0,0.0
10:05:05,569497.0,0.0,0.0
10:05:05,569642.0,0.0,0.0
10:05:05,570161.0,0.0,0.0
10:05:05,569141.0,0.0,0.0
10:05:05,570044.0,0.0,0.0
10:05:05,569441.0,0.0,0.0
10:05:05,569566.0,0.0,0.0
10:05:05,570184.0,0.0,0.0
10:05:05,569203.0,0.0,0.0
10:05:05,570069.0,0.0,0.0
10:05:05,569417.0,0.0,0.0
10:05:05,569566.0,0.0,0.0
10:05:05,570182.0,0.0,0.0
10:05:05,569217.0,0.0,0.0
10:05:05,570098.0,0.0,0.0
10:05:05,569448.0,0.0,0.0
10:05:05,569496.0,0.0,0.0
10:05:05,570144.0,0.0,0.0
10:05:05,569298.0,0.0,0.0
10:05:05,570283.0,0.0,0.0
10:05:05,569548.0,0.0,0.0
10:05:05,569553.0,0.0,0.0
10:05:05,570105.0,0.0,0.0
10:05:05,569225.0,0.0,0.0
10:05:05,570284.0,0.0,0.0
10:05:05,569651.0,0.0,0.0
10:05:05,569641.0,0.0,0.0
10:05:05,570086.0,0.0,0.0
10:05:05,569177.0,0.0,0.0
10:05:05,570255.0,0.0,0.0
10:05:05,569666.0,0.0,0.0
10:05:05,569695.0,0.0,0.0
10:05:05,570156.0,0.0,0.0
10:05:05,569242.0,0.0,0.0
10:05:05,570199.0,0.0,0.0
10:05:05,569615.0,0.0,0.0
10:05:05,569738.0,0.0,0.0
10:05:05,570162.0,0.0,0.0
10:05:05,569137.0,0.0,0.0
10:05:05,570166.0,0.0,0.0
10:05:05,569651.0,0.0,0.0
10:05:05,569762.0,0.0,0.0
10:05:05,570279.0,0.0,0.0
10:05:05,569191.0,0.0,0.0
10:05:05,570099.0,0.0,0.0
10:05:05,569523.0,0.0,0.0
10:05:05,569653.0,0.0,0.0
10:05:06,570333.0,0.0,0.0
10:05:06,569336.0,0.0,0.0
10:05:06,570202.0,0.0,0.0
10:05:06,569624.0,0.0,0.0
10:05:06,569735.0,0.0,0.0
10:05:06,570323.0,0.0,0.0
10:05:06,569390.0,0.0,0.0
10:05:06,570239.0,0.0,0.0
10:05:06,569743.0,0.0,0.0
10:05:06,569844.0,0.0,0.0
10:05:06,570466.0,0.0,0.0
10:05:06,569552.0,0.0,0.0
10:05:06,570341.0,0.0,0.0
10:05:06,569660.0,0.0,0.0
10:05:06,569686.0,0.0,0.0
10:05:06,570268.0,0.0,0.0
10:05:06,569417.0,0.0,0.0
10:05:06,570497.0,0.0,0.0
10:05:06,569804.0,0.0,0.0
10:05:06,569771.0,0.0,0.0
10:05:06,570225.0,0.0,0.0
10:05:06,569339.0,0.0,0.0
10:05:06,570343.0,0.0,0.0
10:05:06,569764.0,0.0,0.0
10:05:06,569767.0,0.0,0.0
10:05:06,570193.0,0.0,0.0
10:05:06,569268.0,0.0,0.0
10:05:06,570234.0,0.0,0.0
10:05:06,569690.0,0.0,0.0
10:05:06,569769.0,0.0,0.0
10:05:06,570238.0,0.0,0.0
10:05:06,569203.0,0.0,0.0
10:05:06,570139.0,0.0,0.0
10:05:06,569636.0,0.0,0.0
10:05:06,569746.0,0.0,0.0
10:05:06,570385.0,0.0,0.0
10:05:06,569315.0,0.0,0.0
10:05:06,570188.0,0.0,0.0
10:05:06,569666.0,0.0,0.0
10:05:06,569783.0,0.0,0.0
10:05:06,570464.0,0.0,0.0
10:05:06,569444.0,0.0,0.0
10:05:06,570351.0,0.0,0.0
10:05:06,569801.0,0.0,0.0
10:05:06,569863.0,0.0,0.0
10:05:06,570554.0,0.0,0.0
10:05:06,569670.0,0.0,0.0
10:05:06,570600.0,0.0,0.0
10:05:06,569968.0,0.0,0.0
10:05:06,569941.0,0.0,0.0
10:05:06,570617.0,0.0,0.0
10:05:06,569809.0,0.0,0.0
10:05:06,570785.0,0.0,0.0
10:05:06,570144.0,0.0,0.0
10:05:06,570153.0,0.0,0.0
10:05:06,570661.0,0.0,0.0
10:05:06,569891.0,0.0,0.0
10:05:06,570970.0,0.0,0.0
10:05:06,570374.0,0.0,0.0
10:05:06,570318.0,0.0,0.0
10:05:06,570823.0,0.0,0.0
10:05:06,570016.0,0.0,0.0
10:05:06,571014.0,0.0,0.0
10:05:06,570449.0,0.0,0.0
10:05:06,570491.0,0.0,0.0
10:05:06,570921.0,0.0,0.0
10:05:06,569952.0,0.0,0.0
10:05:06,570953.0,0.0,0.0
10:05:06,570436.0,0.0,0.0
10:05:06,570550.0,0.0,0.0
10:05:06,571083.0,0.0,0.0
10:05:06,570012.0,0.0,0.0
10:05:06,570913.0,0.0,0.0
10:05:06,570400.0,0.0,0.0
10:05:06,570439.0,0.0,0.0
10:05:06,571082.0,0.0,0.0
10:05:06,570060.0,0.0,0.0
10:05:06,570955.0,0.0,0.0
10:05:06,570384.0,0.0,0.0
10:05:06,570398.0,0.0,0.0
10:05:06,571054.0,0.0,0.0
10:05:06,570118.0,0.0,0.0
10:05:06,570998.0,0.0,0.0
10:05:06,570359.0,0.0,0.0
10:05:06,570277.0,0.0,0.0
10:05:06,570867.0,0.0,0.0
10:05:06,570033.0,0.0,0.0
10:05:06,570901.0,0.0,0.0
10:05:06,570238.0,0.0,0.0
10:05:06,570112.0,0.0,0.0
10:05:06,570639.0,0.0,0.0
10:05:06,569988.0,0.0,0.0
10:05:06,570967.0,0.0,0.0
10:05:06,570270.0,0.0,0.0
10:05:06,570097.0,0.0,0.0
10:05:06,570397.0,0.0,0.0
10:05:06,569513.0,0.0,0.0
10:05:06,570506.0,0.0,0.0
10:05:06,569979.0,0.0,0.0
10:05:06,569973.0,0.0,0.0
10:05:06,570374.0,0.0,0.0
10:05:06,569523.0,0.0,0.0
10:05:06,570437.0,0.0,0.0
10:05:06,569985.0,0.0,0.0
10:05:06,569995.0,0.0,0.0
10:05:06,570410.0,0.0,0.0
10:05:06,569534.0,0.0,0.0
10:05:06,570444.0,0.0,0.0
10:05:06,569988.0,0.0,0.0
10:05:06,570104.0,0.0,0.0
10:05:06,570638.0,0.0,0.0
10:05:06,569602.0,0.0,0.0
10:05:06,570419.0,0.0,0.0
10:05:06,569937.0,0.0,0.0
10:05:06,570010.0,0.0,0.0
10:05:06,570599.0,0.0,0.0
10:05:06,569687.0,0.0,0.0
10:05:06,570435.0,0.0,0.0
10:05:06,569924.0,0.0,0.0
10:05:06,569958.0,0.0,0.0
10:05:06,570604.0,0.0,0.0
10:05:06,569775.0,0.0,0.0
10:05:06,570631.0,0.0,0.0
10:05:06,570050.0,0.0,0.0
10:05:06,570044.0,0.0,0.0
10:05:07,570700.0,0.0,0.0
10:05:07,569882.0,0.0,0.0
10:05:07,570805.0,0.0,0.0
10:05:07,570203.0,0.0,0.0
10:05:07,570139.0,0.0,0.0
10:05:07,570711.0,0.0,0.0
10:05:07,569874.0,0.0,0.0
10:05:07,570863.0,0.0,0.0
10:05:07,570286.0,0.0,0.0
10:05:07,570277.0,0.0,0.0
10:05:07,570798.0,0.0,0.0
10:05:07,569898.0,0.0,0.0
10:05:07,570931.0,0.0,0.0
10:05:07,570399.0,0.0,0.0
10:05:07,570371.0,0.0,0.0
10:05:07,570883.0,0.0,0.0
10:05:07,569933.0,0.0,0.0
10:05:07,570888.0,0.0,0.0
10:05:07,570412.0,0.0,0.0
10:05:07,570453.0,0.0,0.0
10:05:07,570984.0,0.0,0.0
10:05:07,569891.0,0.0,0.0
10:05:07,570823.0,0.0,0.0
10:05:07,570354.0,0.0,0.0
10:05:07,570374.0,0.0,0.0
10:05:07,571002.0,0.0,0.0
10:05:07,569886.0,0.0,0.0
10:05:07,570724.0,0.0,0.0
10:05:07,570200.0,0.0,0.0
10:05:07,570212.0,0.0,0.0
10:05:07,570896.0,0.0,0.0
10:05:07,569833.0,0.0,0.0
10:05:07,570654.0,0.0,0.0
10:05:07,570093.0,0.0,0.0
10:05:07,570039.0,0.0,0.0
10:05:07,570714.0,0.0,0.0
10:05:07,569832.0,0.0,0.0
10:05:07,570791.0,0.0,0.0
10:05:07,570136.0,0.0,0.0
10:05:07,570022.0,0.0,0.0
10:05:07,570663.0,0.0,0.0
10:05:07,569814.0,0.0,0.0
10:05:07,570684.0,0.0,0.0
10:05:07,570032.0,0.0,0.0
10:05:07,569918.0,0.0,0.0
10:05:07,570482.0,0.0,0.0
10:05:07,569781.0,0.0,0.0
10:05:07,570776.0,0.0,0.0
10:05:07,570197.0,0.0,0.0
10:05:07,570004.0,0.0,0.0
10:05:07,570366.0,0.0,0.0
10:05:07,569588.0,0.0,0.0
10:05:07,570381.0,0.0,0.0
10:05:07,569951.0,0.0,0.0
10:05:07,569974.0,0.0,0.0
10:05:07,570245.0,0.0,0.0
10:05:07,569523.0,0.0,0.0
10:05:07,570154.0,0.0,0.0
10:05:07,569716.0,0.0,0.0
10:05:07,569859.0,0.0,0.0
10:05:07,570100.0,0.0,0.0
10:05:07,569321.0,0.0,0.0
10:05:07,569873.0,0.0,0.0
10:05:07,569451.0,0.0,0.0
10:05:07,569481.0,0.0,0.0
10:05:07,569841.0,0.0,0.0
10:05:07,569138.0,0.0,0.0
10:05:07,569596.0,0.0,0.0
10:05:07,569189.0,0.0,0.0
10:05:07,569237.0,0.0,0.0
10:05:07,569744.0,0.0,0.0
10:05:07,569171.0,0.0,0.0
10:05:07,569633.0,0.0,0.0
10:05:07,569159.0,0.0,0.0
10:05:07,569264.0,0.0,0.0
10:05:07,569723.0,0.0,0.0
10:05:07,569182.0,0.0,0.0
10:05:07,569743.0,0.0,0.0
10:05:07,569131.0,0.0,0.0
10:05:07,569103.0,0.0,0.0
10:05:07,569434.0,0.0,0.0
10:05:07,568959.0,0.0,0.0
10:05:07,569637.0,0.0,0.0
10:05:07,569211.0,0.0,0.0
10:05:07,569228.0,0.0,0.0
10:05:07,569490.0,0.0,0.0
10:05:07,568929.0,0.0,0.0
10:05:07,569649.0,0.0,0.0
10:05:07,569222.0,0.0,0.0
10:05:07,569247.0,0.0,0.0
10:05:07,569465.0,0.0,0.0
10:05:07,568953.0,0.0,0.0
10:05:07,569670.0,0.0,0.0
10:05:07,569281.0,0.0,0.0
10:05:07,569366.0,0.0,0.0
10:05:07,569547.0,0.0,0.0
10:05:07,568882.0,0.0,0.0
10:05:07,569617.0,0.0,0.0
10:05:07,569227.0,0.0,0.0
10:05:07,569320.0,0.0,0.0
10:05:07,569746.0,0.0,0.0
10:05:07,568921.0,0.0,0.0
10:05:07,569497.0,0.0,0.0
10:05:07,569163.0,0.0,0.0
10:05:07,569246.0,0.0,0.0
10:05:07,569747.0,0.0,0.0
10:05:07,569036.0,0.0,0.0
10:05:07,569500.0,0.0,0.0
10:05:07,569106.0,0.0,0.0
10:05:07,569198.0,0.0,0.0
10:05:07,569712.0,0.0,0.0
10:05:07,569021.0,0.0,0.0
10:05:07,569731.0,0.0,0.0
10:05:07,569140.0,0.0,0.0
10:05:07,569089.0,0.0,0.0
10:05:07,569665.0,0.0,0.0
10:05:07,568956.0,0.0,0.0
10:05:07,569769.0,0.0,0.0
10:05:07,569201.0,0.0,0.0
10:05:07,568996.0,0.0,0.0
10:05:07,569422.0,0.0,0.0
10:05:07,568584.0,0.0,0.0
10:05:07,569496.0,0.0,0.0
10:05:07,568994.0,0.0,0.0
10:05:07,568933.0,0.0,0.0
10:05:08,569431.0,0.0,0.0
10:05:08,568423.0,0.0,0.0
10:05:08,569338.0,0.0,0.0
10:05:08,568698.0,0.0,0.0
10:05:08,568504.0,0.0,0.0
10:05:08,569058.0,0.0,0.0
10:05:08,567996.0,0.0,0.0
10:05:08,568994.0,0.0,0.0
10:05:08,568511.0,0.0,0.0
10:05:08,568442.0,0.0,0.0
10:05:08,569071.0,0.0,0.0
10:05:08,567857.0,0.0,0.0
10:05:08,568876.0,0.0,0.0
10:05:08,568447.0,0.0,0.0
10:05:08,568324.0,0.0,0.0
10:05:08,569159.0,0.0,0.0
10:05:08,568040.0,0.0,0.0
10:05:08,568943.0,0.0,0.0
10:05:08,568359.0,0.0,0.0
10:05:08,568247.0,0.0,0.0
10:05:08,569032.0,0.0,0.0
10:05:08,567985.0,0.0,0.0
10:05:08,568761.0,0.0,0.0
10:05:08,568176.0,0.0,0.0
10:05:08,568025.0,0.0,0.0
10:05:08,568609.0,0.0,0.0
10:05:08,567814.0,0.0,0.0
10:05:08,568877.0,0.0,0.0
10:05:08,568403.0,0.0,0.0
10:05:08,568074.0,0.0,0.0
10:05:08,568539.0,0.0,0.0
10:05:08,567899.0,0.0,0.0
10:05:08,568834.0,0.0,0.0
10:05:08,568393.0,0.0,0.0
10:05:08,568234.0,0.0,0.0
10:05:08,568638.0,0.0,0.0
10:05:08,567993.0,0.0,0.0
10:05:08,568799.0,0.0,0.0
10:05:08,568435.0,0.0,0.0
10:05:08,568429.0,0.0,0.0
10:05:08,568603.0,0.0,0.0
10:05:08,567892.0,0.0,0.0
10:05:08,568481.0,0.0,0.0
10:05:08,568099.0,0.0,0.0
10:05:08,568236.0,0.0,0.0
10:05:08,568479.0,0.0,0.0
10:05:08,567803.0,0.0,0.0
10:05:08,568354.0,0.0,0.0
10:05:08,568091.0,0.0,0.0
10:05:08,568494.0,0.0,0.0
10:05:08,568883.0,0.0,0.0
10:05:08,568071.0,0.0,0.0
10:05:08,568559.0,0.0,0.0
10:05:08,568151.0,0.0,0.0
10:05:08,568207.0,0.0,0.0
10:05:08,568576.0,0.0,0.0
10:05:08,567914.0,0.0,0.0
10:05:08,568439.0,0.0,0.0
10:05:08,568043.0,0.0,0.0
10:05:08,567928.0,0.0,0.0
10:05:08,568416.0,0.0,0.0
10:05:08,567708.0,0.0,0.0
10:05:08,568258.0,0.0,0.0
10:05:08,567667.0,0.0,0.0
10:05:08,567460.0,0.0,0.0
10:05:08,567883.0,0.0,0.0
10:05:08,567211.0,0.0,0.0
10:05:08,567996.0,0.0,0.0
10:05:08,567533.0,0.0,0.0
10:05:08,567485.0,0.0,0.0
10:05:08,568134.0,0.0,0.0
10:05:08,567424.0,0.0,0.0
10:05:08,568626.0,0.0,0.0
10:05:08,568280.0,0.0,0.0
10:05:08,568364.0,0.0,0.0
10:05:08,569012.0,0.0,0.0
10:05:08,567779.0,0.0,0.0
10:05:08,568650.0,0.0,0.0
10:05:08,568253.0,0.0,0.0
10:05:08,568523.0,0.0,0.0
10:05:08,569011.0,0.0,0.0
10:05:08,567719.0,0.0,0.0
10:05:08,568588.0,0.0,0.0
10:05:08,568078.0,0.0,0.0
10:05:08,568121.0,0.0,0.0
10:05:08,568848.0,0.0,0.0
10:05:08,567608.0,0.0,0.0
10:05:08,568461.0,0.0,0.0
10:05:08,568003.0,0.0,0.0
10:05:08,567955.0,0.0,0.0
10:05:08,568702.0,0.0,0.0
10:05:08,567629.0,0.0,0.0
10:05:08,568348.0,0.0,0.0
10:05:08,567698.0,0.0,0.0
10:05:08,567490.0,0.0,0.0
10:05:08,568222.0,0.0,0.0
10:05:08,567263.0,0.0,0.0
10:05:08,568065.0,0.0,0.0
10:05:08,567463.0,0.0,0.0
10:05:08,567210.0,0.0,0.0
10:05:08,567938.0,0.0,0.0
10:05:08,567002.0,0.0,0.0
10:05:08,567923.0,0.0,0.0
10:05:08,567383.0,0.0,0.0
10:05:08,567006.0,0.0,0.0
10:05:08,567508.0,0.0,0.0
10:05:08,566674.0,0.0,0.0
10:05:08,567503.0,0.0,0.0
10:05:08,567068.0,0.0,0.0
10:05:08,566817.0,0.0,0.0
10:05:08,567248.0,0.0,0.0
10:05:08,566321.0,0.0,0.0
10:05:08,566971.0,0.0,0.0
10:05:08,566599.0,0.0,0.0
10:05:08,566632.0,0.0,0.0
10:05:08,567116.0,0.0,0.0
10:05:08,566194.0,0.0,0.0
10:05:08,566896.0,0.0,0.0
10:05:08,566523.0,0.0,0.0
10:05:08,566383.0,0.0,0.0
10:05:08,566890.0,0.0,0.0
10:05:08,565956.0,0.0,0.0
10:05:08,566555.0,0.0,0.0
10:05:08,566113.0,0.0,0.0
10:05:09,566026.0,0.0,0.0
10:05:09,566683.0,0.0,0.0
10:05:09,565950.0,0.0,0.0
10:05:09,566566.0,0.0,0.0
10:05:09,566096.0,0.0,0.0
10:05:09,566160.0,0.0,0.0
10:05:09,566908.0,0.0,0.0
10:05:09,566009.0,0.0,0.0
10:05:09,566795.0,0.0,0.0
10:05:09,566409.0,0.0,0.0
10:05:09,566219.0,0.0,0.0
10:05:09,566917.0,0.0,0.0
10:05:09,566089.0,0.0,0.0
10:05:09,566995.0,0.0,0.0
10:05:09,566571.0,0.0,0.0
10:05:09,566316.0,0.0,0.0
10:05:09,566871.0,0.0,0.0
10:05:09,566072.0,0.0,0.0
10:05:09,566873.0,0.0,0.0
10:05:09,566466.0,0.0,0.0
10:05:09,566259.0,0.0,0.0
10:05:09,566767.0,0.0,0.0
10:05:09,565946.0,0.0,0.0
10:05:09,566694.0,0.0,0.0
10:05:09,566314.0,0.0,0.0
10:05:09,566255.0,0.0,0.0
10:05:09,566645.0,0.0,0.0
10:05:09,565691.0,0.0,0.0
10:05:09,566404.0,0.0,0.0
10:05:09,565999.0,0.0,0.0
10:05:09,566071.0,0.0,0.0
10:05:09,566487.0,0.0,0.0
10:05:09,565551.0,0.0,0.0
10:05:09,566254.0,0.0,0.0
10:05:09,565835.0,0.0,0.0
10:05:09,565847.0,0.0,0.0
10:05:09,566289.0,0.0,0.0
10:05:09,565599.0,0.0,0.0
10:05:09,566398.0,0.0,0.0
10:05:09,565867.0,0.0,0.0
10:05:09,565811.0,0.0,0.0
10:05:09,566161.0,0.0,0.0
10:05:09,565277.0,0.0,0.0
10:05:09,565871.0,0.0,0.0
10:05:09,565356.0,0.0,0.0
10:05:09,565210.0,0.0,0.0
10:05:09,565686.0,0.0,0.0
10:05:09,565013.0,0.0,0.0
10:05:09,565626.0,0.0,0.0
10:05:09,564992.0,0.0,0.0
10:05:09,564729.0,0.0,0.0
10:05:09,565186.0,0.0,0.0
10:05:09,564445.0,0.0,0.0
10:05:09,565187.0,0.0,0.0
10:05:09,564827.0,0.0,0.0
10:05:09,564635.0,0.0,0.0
10:05:09,565191.0,0.0,0.0
10:05:09,564573.0,0.0,0.0
10:05:09,565384.0,0.0,0.0
10:05:09,565008.0,0.0,0.0
10:05:09,564845.0,0.0,0.0
10:05:09,565498.0,0.0,0.0
10:05:09,564953.0,0.0,0.0
10:05:09,565571.0,0.0,0.0
10:05:09,565008.0,0.0,0.0
10:05:09,564918.0,0.0,0.0
10:05:09,565263.0,0.0,0.0
10:05:09,564418.0,0.0,0.0
10:05:09,565150.0,0.0,0.0
10:05:09,565063.0,0.0,0.0
10:05:09,565072.0,0.0,0.0
10:05:09,565510.0,0.0,0.0
10:05:09,564579.0,0.0,0.0
10:05:09,565259.0,0.0,0.0
10:05:09,565004.0,0.0,0.0
10:05:09,564974.0,0.0,0.0
10:05:09,565706.0,0.0,0.0
10:05:09,564917.0,0.0,0.0
10:05:09,565714.0,0.0,0.0
10:05:09,565328.0,0.0,0.0
10:05:09,565176.0,0.0,0.0
10:05:09,565883.0,0.0,0.0
10:05:09,565148.0,0.0,0.0
10:05:09,565818.0,0.0,0.0
10:05:09,565335.0,0.0,0.0
10:05:09,565101.0,0.0,0.0
10:05:09,565608.0,0.0,0.0
10:05:09,564963.0,0.0,0.0
10:05:09,565663.0,0.0,0.0
10:05:09,565249.0,0.0,0.0
10:05:09,565096.0,0.0,0.0
10:05:09,565549.0,0.0,0.0
10:05:09,564836.0,0.0,0.0
10:05:09,565507.0,0.0,0.0
10:05:09,565224.0,0.0,0.0
10:05:09,565033.0,0.0,0.0
10:05:09,565429.0,0.0,0.0
10:05:09,564854.0,0.0,0.0
10:05:09,565641.0,0.0,0.0
10:05:09,565400.0,0.0,0.0
10:05:09,565341.0,0.0,0.0
10:05:09,565713.0,0.0,0.0
10:05:09,564898.0,0.0,0.0
10:05:09,565538.0,0.0,0.0
10:05:09,565129.0,0.0,0.0
10:05:09,565080.0,0.0,0.0
10:05:09,565566.0,0.0,0.0
10:05:09,564750.0,0.0,0.0
10:05:09,565403.0,0.0,0.0
10:05:09,565051.0,0.0,0.0
10:05:09,565088.0,0.0,0.0
10:05:09,565614.0,0.0,0.0
10:05:09,564738.0,0.0,0.0
10:05:09,565331.0,0.0,0.0
10:05:09,564864.0,0.0,0.0
10:05:09,564803.0,0.0,0.0
10:05:09,565529.0,0.0,0.0
10:05:09,564738.0,0.0,0.0
10:05:09,565513.0,0.0,0.0
10:05:09,564949.0,0.0,0.0
10:05:09,564719.0,0.0,0.0
10:05:09,565692.0,0.0,0.0
10:05:09,564977.0,0.0,0.0
10:05:09,565875.0,0.0,0.0
10:05:09,565393.0,0.0,0.0
10:05:10,564999.0,0.0,0.0
10:05:10,565698.0,0.0,0.0
10:05:10,564861.0,0.0,0.0
10:05:10,565907.0,0.0,0.0
10:05:10,565579.0,0.0,0.0
10:05:10,565379.0,0.0,0.0
10:05:10,566098.0,0.0,0.0
10:05:10,565163.0,0.0,0.0
10:05:10,566078.0,0.0,0.0
10:05:10,565636.0,0.0,0.0
10:05:10,565228.0,0.0,0.0
10:05:10,565781.0,0.0,0.0
10:05:10,565022.0,0.0,0.0
10:05:10,565991.0,0.0,0.0
10:05:10,565708.0,0.0,0.0
10:05:10,565604.0,0.0,0.0
10:05:10,566159.0,0.0,0.0
10:05:10,565104.0,0.0,0.0
10:05:10,565884.0,0.0,0.0
10:05:10,565485.0,0.0,0.0
10:05:10,565348.0,0.0,0.0
10:05:10,566045.0,0.0,0.0
10:05:10,565088.0,0.0,0.0
10:05:10,565730.0,0.0,0.0
10:05:10,565243.0,0.0,0.0
10:05:10,565023.0,0.0,0.0
10:05:10,565727.0,0.0,0.0
10:05:10,564823.0,0.0,0.0
10:05:10,565581.0,0.0,0.0
10:05:10,565172.0,0.0,0.0
10:05:10,565011.0,0.0,0.0
10:05:10,565829.0,0.0,0.0
10:05:10,564889.0,0.0,0.0
10:05:10,565734.0,0.0,0.0
10:05:10,565218.0,0.0,0.0
10:05:10,564914.0,0.0,0.0
10:05:10,565656.0,0.0,0.0
10:05:10,564774.0,0.0,0.0
10:05:10,565748.0,0.0,0.0
10:05:10,565367.0,0.0,0.0
10:05:10,564838.0,0.0,0.0
10:05:10,565426.0,0.0,0.0
10:05:10,564371.0,0.0,0.0
10:05:10,565334.0,0.0,0.0
10:05:10,564959.0,0.0,0.0
10:05:10,564724.0,0.0,0.0
10:05:10,565533.0,0.0,0.0
10:05:10,564649.0,0.0,0.0
10:05:10,565669.0,0.0,0.0
10:05:10,565460.0,0.0,0.0
10:05:10,565319.0,0.0,0.0
10:05:10,566010.0,0.0,0.0
10:05:10,565114.0,0.0,0.0
10:05:10,565851.0,0.0,0.0
10:05:10,565571.0,0.0,0.0
10:05:10,565608.0,0.0,0.0
10:05:10,566199.0,0.0,0.0
10:05:10,565219.0,0.0,0.0
10:05:10,565855.0,0.0,0.0
10:05:10,565376.0,0.0,0.0
10:05:10,565360.0,0.0,0.0
10:05:10,565989.0,0.0,0.0
10:05:10,565257.0,0.0,0.0
10:05:10,565804.0,0.0,0.0
10:05:10,565334.0,0.0,0.0
10:05:10,565261.0,0.0,0.0
10:05:10,565824.0,0.0,0.0
10:05:10,565050.0,0.0,0.0
10:05:10,565608.0,0.0,0.0
10:05:10,565115.0,0.0,0.0
10:05:10,564963.0,0.0,0.0
10:05:10,565413.0,0.0,0.0
10:05:10,564778.0,0.0,0.0
10:05:10,565524.0,0.0,0.0
10:05:10,565049.0,0.0,0.0
10:05:10,564815.0,0.0,0.0
10:05:10,565266.0,0.0,0.0
10:05:10,564633.0,0.0,0.0
10:05:10,565488.0,0.0,0.0
10:05:10,565342.0,0.0,0.0
10:05:10,565260.0,0.0,0.0
10:05:10,565948.0,0.0,0.0
10:05:10,565306.0,0.0,0.0
10:05:10,566104.0,0.0,0.0
10:05:10,565741.0,0.0,0.0
10:05:10,565466.0,0.0,0.0
10:05:10,565999.0,0.0,0.0
10:05:10,565426.0,0.0,0.0
10:05:10,566299.0,0.0,0.0
10:05:10,565981.0,0.0,0.0
10:05:10,565776.0,0.0,0.0
10:05:10,566273.0,0.0,0.0
10:05:10,565275.0,0.0,0.0
10:05:10,565835.0,0.0,0.0
10:05:10,565422.0,0.0,0.0
10:05:10,565316.0,0.0,0.0
10:05:10,565846.0,0.0,0.0
10:05:10,564882.0,0.0,0.0
10:05:10,565500.0,0.0,0.0
10:05:10,565044.0,0.0,0.0
10:05:10,564818.0,0.0,0.0
10:05:10,565453.0,0.0,0.0
10:05:10,564644.0,0.0,0.0
10:05:10,565499.0,0.0,0.0
10:05:10,565123.0,0.0,0.0
10:05:10,564943.0,0.0,0.0
10:05:10,565761.0,0.0,0.0
10:05:10,564887.0,0.0,0.0
10:05:10,565864.0,0.0,0.0
10:05:10,565314.0,0.0,0.0
10:05:10,564914.0,0.0,0.0
10:05:10,565696.0,0.0,0.0
10:05:10,564801.0,0.0,0.0
10:05:10,565719.0,0.0,0.0
10:05:10,565400.0,0.0,0.0
10:05:10,565103.0,0.0,0.0
10:05:10,565836.0,0.0,0.0
10:05:10,564913.0,0.0,0.0
10:05:10,565851.0,0.0,0.0
10:05:10,565614.0,0.0,0.0
10:05:10,565422.0,0.0,0.0
10:05:10,566051.0,0.0,0.0
10:05:10,565105.0,0.0,0.0
10:05:10,566014.0,0.0,0.0
10:05:10,565726.0,0.0,0.0
10:05:11,565451.0,0.0,0.0
10:05:11,566243.0,0.0,0.0
10:05:11,565323.0,0.0,0.0
10:05:11,566228.0,0.0,0.0
10:05:11,565984.0,0.0,0.0
10:05:11,565681.0,0.0,0.0
10:05:11,566411.0,0.0,0.0
10:05:11,565466.0,0.0,0.0
10:05:11,566348.0,0.0,0.0
10:05:11,566107.0,0.0,0.0
10:05:11,566056.0,0.0,0.0
10:05:11,566908.0,0.0,0.0
10:05:11,565937.0,0.0,0.0
10:05:11,566772.0,0.0,0.0
10:05:11,566434.0,0.0,0.0
10:05:11,566129.0,0.0,0.0
10:05:11,566938.0,0.0,0.0
10:05:11,566059.0,0.0,0.0
10:05:11,567064.0,0.0,0.0
10:05:11,566625.0,0.0,0.0
10:05:11,566346.0,0.0,0.0
10:05:11,567200.0,0.0,0.0
10:05:11,566203.0,0.0,0.0
10:05:11,567168.0,0.0,0.0
10:05:11,566682.0,0.0,0.0
10:05:11,566155.0,0.0,0.0
10:05:11,566921.0,0.0,0.0
10:05:11,565933.0,0.0,0.0
10:05:11,566805.0,0.0,0.0
10:05:11,566517.0,0.0,0.0
10:05:11,566217.0,0.0,0.0
10:05:11,567066.0,0.0,0.0
10:05:11,566043.0,0.0,0.0
10:05:11,566969.0,0.0,0.0
10:05:11,566811.0,0.0,0.0
10:05:11,566631.0,0.0,0.0
10:05:11,567471.0,0.0,0.0
10:05:11,566451.0,0.0,0.0
10:05:11,567292.0,0.0,0.0
10:05:11,567104.0,0.0,0.0
10:05:11,566933.0,0.0,0.0
10:05:11,567613.0,0.0,0.0
10:05:11,566571.0,0.0,0.0
10:05:11,567232.0,0.0,0.0
10:05:11,567004.0,0.0,0.0
10:05:11,567034.0,0.0,0.0
10:05:11,567563.0,0.0,0.0
10:05:11,566623.0,0.0,0.0
10:05:11,567528.0,0.0,0.0
10:05:11,567234.0,0.0,0.0
10:05:11,567038.0,0.0,0.0
10:05:11,567592.0,0.0,0.0
10:05:11,566798.0,0.0,0.0
10:05:11,567464.0,0.0,0.0
10:05:11,567121.0,0.0,0.0
10:05:11,566837.0,0.0,0.0
10:05:11,567636.0,0.0,0.0
10:05:11,567189.0,0.0,0.0
10:05:11,567814.0,0.0,0.0
10:05:11,567147.0,0.0,0.0
10:05:11,566858.0,0.0,0.0
10:05:11,567322.0,0.0,0.0
10:05:11,566651.0,0.0,0.0
10:05:11,567451.0,0.0,0.0
10:05:11,567076.0,0.0,0.0
10:05:11,566669.0,0.0,0.0
10:05:11,567226.0,0.0,0.0
10:05:11,566444.0,0.0,0.0
10:05:11,567066.0,0.0,0.0
10:05:11,566749.0,0.0,0.0
10:05:11,566353.0,0.0,0.0
10:05:11,566906.0,0.0,0.0
10:05:11,566134.0,0.0,0.0
10:05:11,566736.0,0.0,0.0
10:05:11,566536.0,0.0,0.0
10:05:11,566220.0,0.0,0.0
10:05:11,566653.0,0.0,0.0
10:05:11,565894.0,0.0,0.0
10:05:11,566575.0,0.0,0.0
10:05:11,566551.0,0.0,0.0
10:05:11,566444.0,0.0,0.0
10:05:11,567048.0,0.0,0.0
10:05:11,566100.0,0.0,0.0
10:05:11,566697.0,0.0,0.0
10:05:11,566391.0,0.0,0.0
10:05:11,566246.0,0.0,0.0
10:05:11,566919.0,0.0,0.0
10:05:11,566070.0,0.0,0.0
10:05:11,566632.0,0.0,0.0
10:05:11,566324.0,0.0,0.0
10:05:11,566136.0,0.0,0.0
10:05:11,566992.0,0.0,0.0
10:05:11,566324.0,0.0,0.0
10:05:11,566873.0,0.0,0.0
10:05:11,566491.0,0.0,0.0
10:05:11,566238.0,0.0,0.0
10:05:11,567009.0,0.0,0.0
10:05:11,566349.0,0.0,0.0
10:05:11,567274.0,0.0,0.0
10:05:11,567026.0,0.0,0.0
10:05:11,566424.0,0.0,0.0
10:05:11,567096.0,0.0,0.0
10:05:11,566404.0,0.0,0.0
10:05:11,567189.0,0.0,0.0
10:05:11,566862.0,0.0,0.0
10:05:11,566413.0,0.0,0.0
10:05:11,567313.0,0.0,0.0
10:05:11,566605.0,0.0,0.0
10:05:11,567279.0,0.0,0.0
10:05:11,567068.0,0.0,0.0
10:05:11,566537.0,0.0,0.0
10:05:11,567266.0,0.0,0.0
10:05:11,566473.0,0.0,0.0
10:05:11,567305.0,0.0,0.0
10:05:11,567093.0,0.0,0.0
10:05:11,566701.0,0.0,0.0
10:05:11,567348.0,0.0,0.0
10:05:11,566513.0,0.0,0.0
10:05:11,567323.0,0.0,0.0
10:05:11,567057.0,0.0,0.0
10:05:11,566736.0,0.0,0.0
10:05:11,567457.0,0.0,0.0
10:05:11,566321.0,0.0,0.0
10:05:11,567013.0,0.0,0.0
10:05:11,566760.0,0.0,0.0
10:05:12,566519.0,0.0,0.0
10:05:12,567604.0,0.0,0.0
10:05:12,566624.0,0.0,0.0
10:05:12,567309.0,0.0,0.0
10:05:12,566919.0,0.0,0.0
10:05:12,566346.0,0.0,0.0
10:05:12,567045.0,0.0,0.0
10:05:12,566024.0,0.0,0.0
10:05:12,566656.0,0.0,0.0
10:05:12,566219.0,0.0,0.0
10:05:12,565791.0,0.0,0.0
10:05:12,566684.0,0.0,0.0
10:05:12,565679.0,0.0,0.0
10:05:12,566429.0,0.0,0.0
10:05:12,565989.0,0.0,0.0
10:05:12,565529.0,0.0,0.0
10:05:12,566431.0,0.0,0.0
10:05:12,565555.0,0.0,0.0
10:05:12,566424.0,0.0,0.0
10:05:12,566237.0,0.0,0.0
10:05:12,565749.0,0.0,0.0
10:05:12,566668.0,0.0,0.0
10:05:12,565885.0,0.0,0.0
10:05:12,566559.0,0.0,0.0
10:05:12,566472.0,0.0,0.0
10:05:12,566173.0,0.0,0.0
10:05:12,566871.0,0.0,0.0
10:05:12,565694.0,0.0,0.0
10:05:12,566466.0,0.0,0.0
10:05:12,566478.0,0.0,0.0
10:05:12,566174.0,0.0,0.0
10:05:12,566737.0,0.0,0.0
10:05:12,565860.0,0.0,0.0
10:05:12,566516.0,0.0,0.0
10:05:12,566411.0,0.0,0.0
10:05:12,566246.0,0.0,0.0
10:05:12,566809.0,0.0,0.0
10:05:12,565891.0,0.0,0.0
10:05:12,566489.0,0.0,0.0
10:05:12,566411.0,0.0,0.0
10:05:12,566432.0,0.0,0.0
10:05:12,567111.0,0.0,0.0
10:05:12,566197.0,0.0,0.0
10:05:12,566624.0,0.0,0.0
10:05:12,566258.0,0.0,0.0
10:05:12,566106.0,0.0,0.0
10:05:12,566755.0,0.0,0.0
10:05:12,566124.0,0.0,0.0
10:05:12,566728.0,0.0,0.0
10:05:12,566378.0,0.0,0.0
10:05:12,566078.0,0.0,0.0
10:05:12,566664.0,0.0,0.0
10:05:12,565913.0,0.0,0.0
10:05:12,566451.0,0.0,0.0
10:05:12,566250.0,0.0,0.0
10:05:12,565994.0,0.0,0.0
10:05:12,566578.0,0.0,0.0
10:05:12,565871.0,0.0,0.0
10:05:12,566436.0,0.0,0.0
10:05:12,566399.0,0.0,0.0
10:05:12,566081.0,0.0,0.0
10:05:12,566613.0,0.0,0.0
10:05:12,565905.0,0.0,0.0
10:05:12,566536.0,0.0,0.0
10:05:12,566484.0,0.0,0.0
10:05:12,566208.0,0.0,0.0
10:05:12,566646.0,0.0,0.0
10:05:12,565953.0,0.0,0.0
10:05:12,566579.0,0.0,0.0
10:05:12,566553.0,0.0,0.0
10:05:12,566519.0,0.0,0.0
10:05:12,567229.0,0.0,0.0
10:05:12,566512.0,0.0,0.0
10:05:12,567116.0,0.0,0.0
10:05:12,566904.0,0.0,0.0
10:05:12,566706.0,0.0,0.0
10:05:12,567270.0,0.0,0.0
10:05:12,566372.0,0.0,0.0
10:05:12,566767.0,0.0,0.0
10:05:12,566495.0,0.0,0.0
10:05:12,566493.0,0.0,0.0
10:05:12,567336.0,0.0,0.0
10:05:12,566674.0,0.0,0.0
10:05:12,566936.0,0.0,0.0
10:05:12,566512.0,0.0,0.0
10:05:12,566213.0,0.0,0.0
10:05:12,566729.0,0.0,0.0
10:05:12,566116.0,0.0,0.0
10:05:12,566638.0,0.0,0.0
10:05:12,566379.0,0.0,0.0
10:05:12,566104.0,0.0,0.0
10:05:12,566599.0,0.0,0.0
10:05:12,566151.0,0.0,0.0
10:05:12,566671.0,0.0,0.0
10:05:12,566541.0,0.0,0.0
10:05:12,566306.0,0.0,0.0
10:05:12,566799.0,0.0,0.0
10:05:12,566271.0,0.0,0.0
10:05:12,566925.0,0.0,0.0
10:05:12,566779.0,0.0,0.0
10:05:12,566454.0,0.0,0.0
10:05:12,566858.0,0.0,0.0
10:05:12,566221.0,0.0,0.0
10:05:12,566788.0,0.0,0.0
10:05:12,566626.0,0.0,0.0
10:05:12,566424.0,0.0,0.0
10:05:12,566795.0,0.0,0.0
10:05:12,566071.0,0.0,0.0
10:05:12,566606.0,0.0,0.0
10:05:12,566468.0,0.0,0.0
10:05:12,566343.0,0.0,0.0
10:05:12,566926.0,0.0,0.0
10:05:12,565951.0,0.0,0.0
10:05:12,566584.0,0.0,0.0
10:05:12,566306.0,0.0,0.0
10:05:12,566026.0,0.0,0.0
10:05:12,566928.0,0.0,0.0
10:05:12,565801.0,0.0,0.0
10:05:12,566543.0,0.0,0.0
10:05:12,566254.0,0.0,0.0
10:05:12,565890.0,0.0,0.0
10:05:12,566939.0,0.0,0.0
10:05:12,565995.0,0.0,0.0
10:05:12,566759.0,0.0,0.0
10:05:12,566453.0,0.0,0.0
10:05:13,565957.0,0.0,0.0
10:05:13,567006.0,0.0,0.0
10:05:13,566121.0,0.0,0.0
10:05:13,566969.0,0.0,0.0
10:05:13,566575.0,0.0,0.0
10:05:13,565929.0,0.0,0.0
10:05:13,566824.0,0.0,0.0
10:05:13,565766.0,0.0,0.0
10:05:13,566498.0,0.0,0.0
10:05:13,566357.0,0.0,0.0
10:05:13,565705.0,0.0,0.0
10:05:13,566574.0,0.0,0.0
10:05:13,565591.0,0.0,0.0
10:05:13,566453.0,0.0,0.0
10:05:13,566316.0,0.0,0.0
10:05:13,565557.0,0.0,0.0
10:05:13,566270.0,0.0,0.0
10:05:13,565298.0,0.0,0.0
10:05:13,565920.0,0.0,0.0
10:05:13,565813.0,0.0,0.0
10:05:13,565521.0,0.0,0.0
10:05:13,566404.0,0.0,0.0
10:05:13,565386.0,0.0,0.0
10:05:13,566052.0,0.0,0.0
10:05:13,565821.0,0.0,0.0
10:05:13,565404.0,0.0,0.0
10:05:13,566179.0,0.0,0.0
10:05:13,565189.0,0.0,0.0
10:05:13,565626.0,0.0,0.0
10:05:13,565298.0,0.0,0.0
10:05:13,564979.0,0.0,0.0
10:05:13,565733.0,0.0,0.0
10:05:13,564924.0,0.0,0.0
10:05:13,565480.0,0.0,0.0
10:05:13,565114.0,0.0,0.0
10:05:13,564851.0,0.0,0.0
10:05:13,565902.0,0.0,0.0
10:05:13,564993.0,0.0,0.0
10:05:13,565516.0,0.0,0.0
10:05:13,565171.0,0.0,0.0
10:05:13,564679.0,0.0,0.0
10:05:13,565522.0,0.0,0.0
10:05:13,564671.0,0.0,0.0
10:05:13,565366.0,0.0,0.0
10:05:13,565179.0,0.0,0.0
10:05:13,564631.0,0.0,0.0
10:05:13,565093.0,0.0,0.0
10:05:13,562309.0,0.0,0.0
10:05:13,560896.0,0.0,0.0
10:05:13,560078.0,0.0,0.0
10:05:13,559544.0,0.0,0.0
10:05:13,560567.0,0.0,0.0
10:05:13,559748.0,0.0,0.0
10:05:13,560535.0,0.0,0.0
10:05:13,560549.0,0.0,0.0
10:05:13,560161.0,0.0,0.0
10:05:13,560741.0,0.0,0.0
10:05:13,559564.0,0.0,0.0
10:05:13,560041.0,0.0,0.0
10:05:13,559859.0,0.0,0.0
10:05:13,559414.0,0.0,0.0
10:05:13,560216.0,0.0,0.0
10:05:13,559224.0,0.0,0.0
10:05:13,559946.0,0.0,0.0
10:05:13,560058.0,0.0,0.0
10:05:13,560124.0,0.0,0.0
10:05:13,561484.0,0.0,0.0
10:05:13,561153.0,0.0,0.0
10:05:13,562370.0,0.0,0.0
10:05:13,562744.0,0.0,0.0
10:05:13,562543.0,0.0,0.0
10:05:13,563286.0,0.0,0.0
10:05:13,562563.0,0.0,0.0
10:05:13,563401.0,0.0,0.0
10:05:13,563582.0,0.0,0.0
10:05:13,563615.0,0.0,0.0
10:05:13,564655.0,0.0,0.0
10:05:13,563896.0,0.0,0.0
10:05:13,564718.0,0.0,0.0
10:05:13,564713.0,0.0,0.0
10:05:13,564213.0,0.0,0.0
10:05:13,564976.0,0.0,0.0
10:05:13,564068.0,0.0,0.0
10:05:13,564827.0,0.0,0.0
10:05:13,564879.0,0.0,0.0
10:05:13,564448.0,0.0,0.0
10:05:13,565188.0,0.0,0.0
10:05:13,564206.0,0.0,0.0
10:05:13,564909.0,0.0,0.0
10:05:13,564894.0,0.0,0.0
10:05:13,564449.0,0.0,0.0
10:05:13,565219.0,0.0,0.0
10:05:13,564170.0,0.0,0.0
10:05:13,564821.0,0.0,0.0
10:05:13,564816.0,0.0,0.0
10:05:13,564396.0,0.0,0.0
10:05:13,565272.0,0.0,0.0
10:05:13,564289.0,0.0,0.0
10:05:13,564826.0,0.0,0.0
10:05:13,564701.0,0.0,0.0
10:05:13,564285.0,0.0,0.0
10:05:13,565206.0,0.0,0.0
10:05:13,564231.0,0.0,0.0
10:05:13,564765.0,0.0,0.0
10:05:13,564602.0,0.0,0.0
10:05:13,564185.0,0.0,0.0
10:05:13,565134.0,0.0,0.0
10:05:13,564262.0,0.0,0.0
10:05:13,564903.0,0.0,0.0
10:05:13,564661.0,0.0,0.0
10:05:13,564119.0,0.0,0.0
10:05:13,564961.0,0.0,0.0
10:05:13,564149.0,0.0,0.0
10:05:13,565031.0,0.0,0.0
10:05:13,564834.0,0.0,0.0
10:05:13,564199.0,0.0,0.0
10:05:13,565055.0,0.0,0.0
10:05:13,564094.0,0.0,0.0
10:05:13,564858.0,0.0,0.0
10:05:13,564785.0,0.0,0.0
10:05:13,564197.0,0.0,0.0
10:05:13,565021.0,0.0,0.0
10:05:13,564008.0,0.0,0.0
10:05:13,564703.0,0.0,0.0
10:05:13,564658.0,0.0,0.0
10:05:13,564338.0,0.0,0.0
10:05:14,565250.0,0.0,0.0
10:05:14,564113.0,0.0,0.0
10:05:14,564695.0,0.0,0.0
10:05:14,564524.0,0.0,0.0
10:05:14,564038.0,0.0,0.0
10:05:14,564976.0,0.0,0.0
10:05:14,563871.0,0.0,0.0
10:05:14,564446.0,0.0,0.0
10:05:14,564335.0,0.0,0.0
10:05:14,563914.0,0.0,0.0
10:05:14,564863.0,0.0,0.0
10:05:14,563888.0,0.0,0.0
10:05:14,564443.0,0.0,0.0
10:05:14,564261.0,0.0,0.0
10:05:14,563794.0,0.0,0.0
10:05:14,564701.0,0.0,0.0
10:05:14,563768.0,0.0,0.0
10:05:14,564409.0,0.0,0.0
10:05:14,564191.0,0.0,0.0
10:05:14,563671.0,0.0,0.0
10:05:14,564523.0,0.0,0.0
10:05:14,563677.0,0.0,0.0
10:05:14,564364.0,0.0,0.0
10:05:14,564131.0,0.0,0.0
10:05:14,563591.0,0.0,0.0
10:05:14,564388.0,0.0,0.0
10:05:14,563515.0,0.0,0.0
10:05:14,564234.0,0.0,0.0
10:05:14,564166.0,0.0,0.0
10:05:14,563598.0,0.0,0.0
10:05:14,564390.0,0.0,0.0
10:05:14,563504.0,0.0,0.0
10:05:14,564246.0,0.0,0.0
10:05:14,564244.0,0.0,0.0
10:05:14,563578.0,0.0,0.0
10:05:14,563134.0,0.0,0.0
10:05:14,560671.0,0.0,0.0
10:05:14,560329.0,0.0,0.0
10:05:14,559870.0,0.0,0.0
10:05:14,559172.0,0.0,0.0
10:05:14,559771.0,0.0,0.0
10:05:14,558528.0,0.0,0.0
10:05:14,559193.0,0.0,0.0
10:05:14,559391.0,0.0,0.0
10:05:14,559253.0,0.0,0.0
10:05:14,560313.0,0.0,0.0
10:05:14,559214.0,0.0,0.0
10:05:14,559575.0,0.0,0.0
10:05:14,559341.0,0.0,0.0
10:05:14,558826.0,0.0,0.0
10:05:14,559784.0,0.0,0.0
10:05:14,558816.0,0.0,0.0
10:05:14,559200.0,0.0,0.0
10:05:14,558947.0,0.0,0.0
10:05:14,558404.0,0.0,0.0
10:05:14,559278.0,0.0,0.0
10:05:14,558453.0,0.0,0.0
10:05:14,559069.0,0.0,0.0
10:05:14,558663.0,0.0,0.0
10:05:14,557986.0,0.0,0.0
10:05:14,558750.0,0.0,0.0
10:05:14,557959.0,0.0,0.0
10:05:14,558641.0,0.0,0.0
10:05:14,558549.0,0.0,0.0
10:05:14,558111.0,0.0,0.0
10:05:14,559193.0,0.0,0.0
10:05:14,558631.0,0.0,0.0
10:05:14,559819.0,0.0,0.0
10:05:14,560656.0,0.0,0.0
10:05:14,560709.0,0.0,0.0
10:05:14,561968.0,0.0,0.0
10:05:14,561413.0,0.0,0.0
10:05:14,562189.0,0.0,0.0
10:05:14,562251.0,0.0,0.0
10:05:14,561793.0,0.0,0.0
10:05:14,562646.0,0.0,0.0
10:05:14,561702.0,0.0,0.0
10:05:14,562362.0,0.0,0.0
10:05:14,562468.0,0.0,0.0
10:05:14,561988.0,0.0,0.0
10:05:14,562914.0,0.0,0.0
10:05:14,561899.0,0.0,0.0
10:05:14,562501.0,0.0,0.0
10:05:14,562610.0,0.0,0.0
10:05:14,562103.0,0.0,0.0
10:05:14,563016.0,0.0,0.0
10:05:14,562072.0,0.0,0.0
10:05:14,562516.0,0.0,0.0
10:05:14,562493.0,0.0,0.0
10:05:14,562028.0,0.0,0.0
10:05:14,562985.0,0.0,0.0
10:05:14,562120.0,0.0,0.0
10:05:14,562558.0,0.0,0.0
10:05:14,562359.0,0.0,0.0
10:05:14,561818.0,0.0,0.0
10:05:14,562654.0,0.0,0.0
10:05:14,561814.0,0.0,0.0
10:05:14,562636.0,0.0,0.0
10:05:14,562644.0,0.0,0.0
10:05:14,562065.0,0.0,0.0
10:05:14,562834.0,0.0,0.0
10:05:14,561760.0,0.0,0.0
10:05:14,562284.0,0.0,0.0
10:05:14,562149.0,0.0,0.0
10:05:14,561514.0,0.0,0.0
10:05:14,562343.0,0.0,0.0
10:05:14,561504.0,0.0,0.0
10:05:14,562123.0,0.0,0.0
10:05:14,562099.0,0.0,0.0
10:05:14,561528.0,0.0,0.0
10:05:14,562211.0,0.0,0.0
10:05:14,561371.0,0.0,0.0
10:05:14,561929.0,0.0,0.0
10:05:14,561903.0,0.0,0.0
10:05:14,561471.0,0.0,0.0
10:05:14,562085.0,0.0,0.0
10:05:14,561299.0,0.0,0.0
10:05:14,561768.0,0.0,0.0
10:05:14,561738.0,0.0,0.0
10:05:14,561390.0,0.0,0.0
10:05:14,562024.0,0.0,0.0
10:05:14,561253.0,0.0,0.0
10:05:14,561678.0,0.0,0.0
10:05:14,561707.0,0.0,0.0
10:05:15,561506.0,0.0,0.0
10:05:15,562139.0,0.0,0.0
10:05:15,561496.0,0.0,0.0
10:05:15,561833.0,0.0,0.0
10:05:15,561736.0,0.0,0.0
10:05:15,561501.0,0.0,0.0
10:05:15,562181.0,0.0,0.0
10:05:15,561622.0,0.0,0.0
10:05:15,562002.0,0.0,0.0
10:05:15,561841.0,0.0,0.0
10:05:15,561604.0,0.0,0.0
10:05:15,562260.0,0.0,0.0
10:05:15,561743.0,0.0,0.0
10:05:15,562227.0,0.0,0.0
10:05:15,561992.0,0.0,0.0
10:05:15,561698.0,0.0,0.0
10:05:15,562255.0,0.0,0.0
10:05:15,561698.0,0.0,0.0
10:05:15,562274.0,0.0,0.0
10:05:15,562131.0,0.0,0.0
10:05:15,561766.0,0.0,0.0
10:05:15,562276.0,0.0,0.0
10:05:15,561641.0,0.0,0.0
10:05:15,562169.0,0.0,0.0
10:05:15,562068.0,0.0,0.0
10:05:15,561711.0,0.0,0.0
10:05:15,562349.0,0.0,0.0
10:05:15,561641.0,0.0,0.0
10:05:15,562177.0,0.0,0.0
10:05:15,562208.0,0.0,0.0
10:05:15,561799.0,0.0,0.0
10:05:15,562476.0,0.0,0.0
10:05:15,561648.0,0.0,0.0
10:05:15,562103.0,0.0,0.0
10:05:15,562148.0,0.0,0.0
10:05:15,561752.0,0.0,0.0
10:05:15,562554.0,0.0,0.0
10:05:15,561649.0,0.0,0.0
10:05:15,562069.0,0.0,0.0
10:05:15,562013.0,0.0,0.0
10:05:15,561567.0,0.0,0.0
10:05:15,562534.0,0.0,0.0
10:05:15,561596.0,0.0,0.0
10:05:15,562146.0,0.0,0.0
10:05:15,562053.0,0.0,0.0
10:05:15,561492.0,0.0,0.0
10:05:15,562507.0,0.0,0.0
10:05:15,561511.0,0.0,0.0
10:05:15,562024.0,0.0,0.0
10:05:15,561890.0,0.0,0.0
10:05:15,561255.0,0.0,0.0
10:05:15,562193.0,0.0,0.0
10:05:15,561157.0,0.0,0.0
10:05:15,561679.0,0.0,0.0
10:05:15,561418.0,0.0,0.0
10:05:15,560685.0,0.0,0.0
10:05:15,561558.0,0.0,0.0
10:05:15,560648.0,0.0,0.0
10:05:15,561322.0,0.0,0.0
10:05:15,561325.0,0.0,0.0
10:05:15,560673.0,0.0,0.0
10:05:15,561638.0,0.0,0.0
10:05:15,560759.0,0.0,0.0
10:05:15,561382.0,0.0,0.0
10:05:15,561421.0,0.0,0.0
10:05:15,560798.0,0.0,0.0
10:05:15,561589.0,0.0,0.0
10:05:15,560658.0,0.0,0.0
10:05:15,561218.0,0.0,0.0
10:05:15,561300.0,0.0,0.0
10:05:15,560799.0,0.0,0.0
10:05:15,561493.0,0.0,0.0
10:05:15,560506.0,0.0,0.0
10:05:15,561211.0,0.0,0.0
10:05:15,561479.0,0.0,0.0
10:05:15,561016.0,0.0,0.0
10:05:15,561696.0,0.0,0.0
10:05:15,560540.0,0.0,0.0
10:05:15,560843.0,0.0,0.0
10:05:15,560846.0,0.0,0.0
10:05:15,560428.0,0.0,0.0
10:05:15,561351.0,0.0,0.0
10:05:15,560611.0,0.0,0.0
10:05:15,561028.0,0.0,0.0
10:05:15,560959.0,0.0,0.0
10:05:15,560591.0,0.0,0.0
10:05:15,561451.0,0.0,0.0
10:05:15,560699.0,0.0,0.0
10:05:15,561188.0,0.0,0.0
10:05:15,561022.0,0.0,0.0
10:05:15,560607.0,0.0,0.0
10:05:15,561367.0,0.0,0.0
10:05:15,560651.0,0.0,0.0
10:05:15,561235.0,0.0,0.0
10:05:15,561132.0,0.0,0.0
10:05:15,560636.0,0.0,0.0
10:05:15,561364.0,0.0,0.0
10:05:15,560581.0,0.0,0.0
10:05:15,561176.0,0.0,0.0
10:05:15,561253.0,0.0,0.0
10:05:15,560747.0,0.0,0.0
10:05:15,561514.0,0.0,0.0
10:05:15,560864.0,0.0,0.0
10:05:15,561493.0,0.0,0.0
10:05:15,561560.0,0.0,0.0
10:05:15,560953.0,0.0,0.0
10:05:15,561606.0,0.0,0.0
10:05:15,560821.0,0.0,0.0
10:05:15,561426.0,0.0,0.0
10:05:15,561591.0,0.0,0.0
10:05:15,561103.0,0.0,0.0
10:05:15,561946.0,0.0,0.0
10:05:15,561114.0,0.0,0.0
10:05:15,561558.0,0.0,0.0
10:05:15,561698.0,0.0,0.0
10:05:15,561259.0,0.0,0.0
10:05:15,562180.0,0.0,0.0
10:05:15,561308.0,0.0,0.0
10:05:15,561713.0,0.0,0.0
10:05:15,561735.0,0.0,0.0
10:05:15,561255.0,0.0,0.0
10:05:15,562273.0,0.0,0.0
10:05:15,561444.0,0.0,0.0
10:05:15,561922.0,0.0,0.0
10:05:15,561978.0,0.0,0.0
10:05:16,561486.0,0.0,0.0
10:05:16,562526.0,0.0,0.0
10:05:16,561673.0,0.0,0.0
10:05:16,562284.0,0.0,0.0
10:05:16,562273.0,0.0,0.0
10:05:16,561643.0,0.0,0.0
10:05:16,562620.0,0.0,0.0
10:05:16,561727.0,0.0,0.0
10:05:16,562299.0,0.0,0.0
10:05:16,562273.0,0.0,0.0
10:05:16,561533.0,0.0,0.0
10:05:16,562449.0,0.0,0.0
10:05:16,561534.0,0.0,0.0
10:05:16,562136.0,0.0,0.0
10:05:16,562229.0,0.0,0.0
10:05:16,561463.0,0.0,0.0
10:05:16,562394.0,0.0,0.0
10:05:16,561486.0,0.0,0.0
10:05:16,562101.0,0.0,0.0
10:05:16,562299.0,0.0,0.0
10:05:16,561541.0,0.0,0.0
10:05:16,562437.0,0.0,0.0
10:05:16,561496.0,0.0,0.0
10:05:16,562116.0,0.0,0.0
10:05:16,562319.0,0.0,0.0
10:05:16,561687.0,0.0,0.0
10:05:16,562638.0,0.0,0.0
10:05:16,561584.0,0.0,0.0
10:05:16,562064.0,0.0,0.0
10:05:16,562300.0,0.0,0.0
10:05:16,561713.0,0.0,0.0
10:05:16,562659.0,0.0,0.0
10:05:16,561619.0,0.0,0.0
10:05:16,562076.0,0.0,0.0
10:05:16,562205.0,0.0,0.0
10:05:16,561654.0,0.0,0.0
10:05:16,562676.0,0.0,0.0
10:05:16,561713.0,0.0,0.0
10:05:16,562208.0,0.0,0.0
10:05:16,562261.0,0.0,0.0
10:05:16,561614.0,0.0,0.0
10:05:16,562604.0,0.0,0.0
10:05:16,561756.0,0.0,0.0
10:05:16,562508.0,0.0,0.0
10:05:16,562550.0,0.0,0.0
10:05:16,561818.0,0.0,0.0
10:05:16,562757.0,0.0,0.0
10:05:16,561721.0,0.0,0.0
10:05:16,562258.0,0.0,0.0
10:05:16,562399.0,0.0,0.0
10:05:16,561668.0,0.0,0.0
10:05:16,562668.0,0.0,0.0
10:05:16,561833.0,0.0,0.0
10:05:16,562404.0,0.0,0.0
10:05:16,562468.0,0.0,0.0
10:05:16,561686.0,0.0,0.0
10:05:16,562693.0,0.0,0.0
10:05:16,561883.0,0.0,0.0
10:05:16,562452.0,0.0,0.0
10:05:16,562624.0,0.0,0.0
10:05:16,561886.0,0.0,0.0
10:05:16,562812.0,0.0,0.0
10:05:16,561931.0,0.0,0.0
10:05:16,562470.0,0.0,0.0
10:05:16,562650.0,0.0,0.0
10:05:16,561979.0,0.0,0.0
10:05:16,562873.0,0.0,0.0
10:05:16,561981.0,0.0,0.0
10:05:16,562434.0,0.0,0.0
10:05:16,562608.0,0.0,0.0
10:05:16,562002.0,0.0,0.0
10:05:16,563013.0,0.0,0.0
10:05:16,562018.0,0.0,0.0
10:05:16,562503.0,0.0,0.0
10:05:16,562600.0,0.0,0.0
10:05:16,562075.0,0.0,0.0
10:05:16,563098.0,0.0,0.0
10:05:16,562131.0,0.0,0.0
10:05:16,562588.0,0.0,0.0
10:05:16,562643.0,0.0,0.0
10:05:16,562003.0,0.0,0.0
10:05:16,562985.0,0.0,0.0
10:05:16,562126.0,0.0,0.0
10:05:16,562588.0,0.0,0.0
10:05:16,562649.0,0.0,0.0
10:05:16,561986.0,0.0,0.0
10:05:16,563059.0,0.0,0.0
10:05:16,562190.0,0.0,0.0
10:05:16,562750.0,0.0,0.0
10:05:16,562815.0,0.0,0.0
10:05:16,562078.0,0.0,0.0
10:05:16,563073.0,0.0,0.0
10:05:16,562244.0,0.0,0.0
10:05:16,562765.0,0.0,0.0
10:05:16,562928.0,0.0,0.0
10:05:16,562086.0,0.0,0.0
10:05:16,563060.0,0.0,0.0
10:05:16,562249.0,0.0,0.0
10:05:16,562803.0,0.0,0.0
10:05:16,563016.0,0.0,0.0
10:05:16,562194.0,0.0,0.0
10:05:16,563154.0,0.0,0.0
10:05:16,562259.0,0.0,0.0
10:05:16,562839.0,0.0,0.0
10:05:16,563097.0,0.0,0.0
10:05:16,562373.0,0.0,0.0
10:05:16,563308.0,0.0,0.0
10:05:16,562348.0,0.0,0.0
10:05:16,562821.0,0.0,0.0
10:05:16,563057.0,0.0,0.0
10:05:16,562421.0,0.0,0.0
10:05:16,563447.0,0.0,0.0
10:05:16,562408.0,0.0,0.0
10:05:16,562851.0,0.0,0.0
10:05:16,563012.0,0.0,0.0
10:05:16,562421.0,0.0,0.0
10:05:16,563474.0,0.0,0.0
10:05:16,562488.0,0.0,0.0
10:05:16,562849.0,0.0,0.0
10:05:16,562960.0,0.0,0.0
10:05:16,562258.0,0.0,0.0
10:05:16,563297.0,0.0,0.0
10:05:16,562486.0,0.0,0.0
10:05:16,562886.0,0.0,0.0
10:05:16,562911.0,0.0,0.0
10:05:17,562141.0,0.0,0.0
10:05:17,563267.0,0.0,0.0
10:05:17,562690.0,0.0,0.0
10:05:17,563199.0,0.0,0.0
10:05:17,563199.0,0.0,0.0
10:05:17,562311.0,0.0,0.0
10:05:17,563168.0,0.0,0.0
10:05:17,562457.0,0.0,0.0
10:05:17,562913.0,0.0,0.0
10:05:17,563195.0,0.0,0.0
10:05:17,562386.0,0.0,0.0
10:05:17,563311.0,0.0,0.0
10:05:17,562533.0,0.0,0.0
10:05:17,563022.0,0.0,0.0
10:05:17,563279.0,0.0,0.0
10:05:17,562451.0,0.0,0.0
10:05:17,563370.0,0.0,0.0
10:05:17,562556.0,0.0,0.0
10:05:17,563016.0,0.0,0.0
10:05:17,563300.0,0.0,0.0
10:05:17,562606.0,0.0,0.0
10:05:17,563486.0,0.0,0.0
10:05:17,562512.0,0.0,0.0
10:05:17,562909.0,0.0,0.0
10:05:17,563143.0,0.0,0.0
10:05:17,562446.0,0.0,0.0
10:05:17,563464.0,0.0,0.0
10:05:17,562476.0,0.0,0.0
10:05:17,562896.0,0.0,0.0
10:05:17,563100.0,0.0,0.0
10:05:17,562467.0,0.0,0.0
10:05:17,563574.0,0.0,0.0
10:05:17,562723.0,0.0,0.0
10:05:17,563070.0,0.0,0.0
10:05:17,563234.0,0.0,0.0
10:05:17,562579.0,0.0,0.0
10:05:17,563696.0,0.0,0.0
10:05:17,562861.0,0.0,0.0
10:05:17,563271.0,0.0,0.0
10:05:17,563391.0,0.0,0.0
10:05:17,562630.0,0.0,0.0
10:05:17,563694.0,0.0,0.0
10:05:17,562870.0,0.0,0.0
10:05:17,563336.0,0.0,0.0
10:05:17,563480.0,0.0,0.0
10:05:17,562649.0,0.0,0.0
10:05:17,563702.0,0.0,0.0
10:05:17,562896.0,0.0,0.0
10:05:17,563379.0,0.0,0.0
10:05:17,563642.0,0.0,0.0
10:05:17,562785.0,0.0,0.0
10:05:17,563742.0,0.0,0.0
10:05:17,562859.0,0.0,0.0
10:05:17,563210.0,0.0,0.0
10:05:17,563558.0,0.0,0.0
10:05:17,562814.0,0.0,0.0
10:05:17,563729.0,0.0,0.0
10:05:17,562814.0,0.0,0.0
10:05:17,563214.0,0.0,0.0
10:05:17,563478.0,0.0,0.0
10:05:17,562767.0,0.0,0.0
10:05:17,563713.0,0.0,0.0
10:05:17,562759.0,0.0,0.0
10:05:17,563096.0,0.0,0.0
10:05:17,563321.0,0.0,0.0
10:05:17,562664.0,0.0,0.0
10:05:17,563673.0,0.0,0.0
10:05:17,562729.0,0.0,0.0
10:05:17,563112.0,0.0,0.0
10:05:17,563271.0,0.0,0.0
10:05:17,562618.0,0.0,0.0
10:05:17,563725.0,0.0,0.0
10:05:17,562832.0,0.0,0.0
10:05:17,563171.0,0.0,0.0
10:05:17,563344.0,0.0,0.0
10:05:17,562589.0,0.0,0.0
10:05:17,563658.0,0.0,0.0
10:05:17,562831.0,0.0,0.0
10:05:17,563201.0,0.0,0.0
10:05:17,563332.0,0.0,0.0
10:05:17,562455.0,0.0,0.0
10:05:17,563590.0,0.0,0.0
10:05:17,563041.0,0.0,0.0
10:05:17,563390.0,0.0,0.0
10:05:17,563558.0,0.0,0.0
10:05:17,562486.0,0.0,0.0
10:05:17,563363.0,0.0,0.0
10:05:17,562597.0,0.0,0.0
10:05:17,563035.0,0.0,0.0
10:05:17,563326.0,0.0,0.0
10:05:17,562424.0,0.0,0.0
10:05:17,563332.0,0.0,0.0
10:05:17,562479.0,0.0,0.0
10:05:17,562864.0,0.0,0.0
10:05:17,563159.0,0.0,0.0
10:05:17,562292.0,0.0,0.0
10:05:17,563156.0,0.0,0.0
10:05:17,562237.0,0.0,0.0
10:05:17,562548.0,0.0,0.0
10:05:17,562871.0,0.0,0.0
10:05:17,562119.0,0.0,0.0
10:05:17,563092.0,0.0,0.0
10:05:17,562062.0,0.0,0.0
10:05:17,562384.0,0.0,0.0
10:05:17,562637.0,0.0,0.0
10:05:17,561876.0,0.0,0.0
10:05:17,562976.0,0.0,0.0
10:05:17,561993.0,0.0,0.0
10:05:17,562195.0,0.0,0.0
10:05:17,562443.0,0.0,0.0
10:05:17,561706.0,0.0,0.0
10:05:17,562793.0,0.0,0.0
10:05:17,561894.0,0.0,0.0
10:05:17,562161.0,0.0,0.0
10:05:17,562378.0,0.0,0.0
10:05:17,561556.0,0.0,0.0
10:05:17,562655.0,0.0,0.0
10:05:17,561845.0,0.0,0.0
10:05:17,562166.0,0.0,0.0
10:05:17,562360.0,0.0,0.0
10:05:17,561459.0,0.0,0.0
10:05:17,562539.0,0.0,0.0
10:05:17,561752.0,0.0,0.0
10:05:17,562100.0,0.0,0.0
10:05:17,562458.0,0.0,0.0
10:05:18,561519.0,0.0,0.0
10:05:18,562478.0,0.0,0.0
10:05:18,561711.0,0.0,0.0
10:05:18,562124.0,0.0,0.0
10:05:18,562471.0,0.0,0.0
10:05:18,561576.0,0.0,0.0
10:05:18,562558.0,0.0,0.0
10:05:18,561713.0,0.0,0.0
10:05:18,562093.0,0.0,0.0
10:05:18,562504.0,0.0,0.0
10:05:18,561736.0,0.0,0.0
10:05:18,562661.0,0.0,0.0
10:05:18,561774.0,0.0,0.0
10:05:18,562124.0,0.0,0.0
10:05:18,562487.0,0.0,0.0
10:05:18,561778.0,0.0,0.0
10:05:18,562851.0,0.0,0.0
10:05:18,561903.0,0.0,0.0
10:05:18,562227.0,0.0,0.0
10:05:18,562581.0,0.0,0.0
10:05:18,561835.0,0.0,0.0
10:05:18,562952.0,0.0,0.0
10:05:18,562123.0,0.0,0.0
10:05:18,562346.0,0.0,0.0
10:05:18,562618.0,0.0,0.0
10:05:18,561814.0,0.0,0.0
10:05:18,562961.0,0.0,0.0
10:05:18,562173.0,0.0,0.0
10:05:18,562485.0,0.0,0.0
10:05:18,562688.0,0.0,0.0
10:05:18,561743.0,0.0,0.0
10:05:18,562791.0,0.0,0.0
10:05:18,562040.0,0.0,0.0
10:05:18,562329.0,0.0,0.0
10:05:18,562697.0,0.0,0.0
10:05:18,561910.0,0.0,0.0
10:05:18,562993.0,0.0,0.0
10:05:18,562168.0,0.0,0.0
10:05:18,562296.0,0.0,0.0
10:05:18,562560.0,0.0,0.0
10:05:18,561601.0,0.0,0.0
10:05:18,562610.0,0.0,0.0
10:05:18,561823.0,0.0,0.0
10:05:18,562167.0,0.0,0.0
10:05:18,562607.0,0.0,0.0
10:05:18,561683.0,0.0,0.0
10:05:18,562621.0,0.0,0.0
10:05:18,561704.0,0.0,0.0
10:05:18,562005.0,0.0,0.0
10:05:18,562388.0,0.0,0.0
10:05:18,561537.0,0.0,0.0
10:05:18,562498.0,0.0,0.0
10:05:18,561518.0,0.0,0.0
10:05:18,561819.0,0.0,0.0
10:05:18,562142.0,0.0,0.0
10:05:18,561273.0,0.0,0.0
10:05:18,562324.0,0.0,0.0
10:05:18,561389.0,0.0,0.0
10:05:18,561609.0,0.0,0.0
10:05:18,561919.0,0.0,0.0
10:05:18,561041.0,0.0,0.0
10:05:18,562166.0,0.0,0.0
10:05:18,561351.0,0.0,0.0
10:05:18,561484.0,0.0,0.0
10:05:18,561769.0,0.0,0.0
10:05:18,560888.0,0.0,0.0
10:05:18,561969.0,0.0,0.0
10:05:18,561216.0,0.0,0.0
10:05:18,561470.0,0.0,0.0
10:05:18,561722.0,0.0,0.0
10:05:18,560774.0,0.0,0.0
10:05:18,561843.0,0.0,0.0
10:05:18,561119.0,0.0,0.0
10:05:18,561405.0,0.0,0.0
10:05:18,561806.0,0.0,0.0
10:05:18,560795.0,0.0,0.0
10:05:18,561810.0,0.0,0.0
10:05:18,561092.0,0.0,0.0
10:05:18,561391.0,0.0,0.0
10:05:18,561824.0,0.0,0.0
10:05:18,560788.0,0.0,0.0
10:05:18,561768.0,0.0,0.0
10:05:18,560986.0,0.0,0.0
10:05:18,561256.0,0.0,0.0
10:05:18,561757.0,0.0,0.0
10:05:18,560840.0,0.0,0.0
10:05:18,561761.0,0.0,0.0
10:05:18,560993.0,0.0,0.0
10:05:18,561211.0,0.0,0.0
10:05:18,561636.0,0.0,0.0
10:05:18,560823.0,0.0,0.0
10:05:18,561800.0,0.0,0.0
10:05:18,560931.0,0.0,0.0
10:05:18,561134.0,0.0,0.0
10:05:18,561503.0,0.0,0.0
10:05:18,560724.0,0.0,0.0
10:05:18,561760.0,0.0,0.0
10:05:18,560909.0,0.0,0.0
10:05:18,561090.0,0.0,0.0
10:05:18,561476.0,0.0,0.0
10:05:18,560677.0,0.0,0.0
10:05:18,561797.0,0.0,0.0
10:05:18,561031.0,0.0,0.0
10:05:18,561194.0,0.0,0.0
10:05:18,561549.0,0.0,0.0
10:05:18,560674.0,0.0,0.0
10:05:18,561778.0,0.0,0.0
10:05:18,561043.0,0.0,0.0
10:05:18,561214.0,0.0,0.0
10:05:18,561576.0,0.0,0.0
10:05:18,560600.0,0.0,0.0
10:05:18,561588.0,0.0,0.0
10:05:18,560926.0,0.0,0.0
10:05:18,561326.0,0.0,0.0
10:05:18,561898.0,0.0,0.0
10:05:18,560938.0,0.0,0.0
10:05:18,561891.0,0.0,0.0
10:05:18,561018.0,0.0,0.0
10:05:18,561203.0,0.0,0.0
10:05:18,561683.0,0.0,0.0
10:05:18,560797.0,0.0,0.0
10:05:18,561759.0,0.0,0.0
10:05:18,561031.0,0.0,0.0
10:05:18,561309.0,0.0,0.0
10:05:18,561789.0,0.0,0.0
10:05:19,560904.0,0.0,0.0
10:05:19,561877.0,0.0,0.0
10:05:19,561028.0,0.0,0.0
10:05:19,561230.0,0.0,0.0
10:05:19,561694.0,0.0,0.0
10:05:19,560920.0,0.0,0.0
10:05:19,561941.0,0.0,0.0
10:05:19,561004.0,0.0,0.0
10:05:19,561164.0,0.0,0.0
10:05:19,561622.0,0.0,0.0
10:05:19,560830.0,0.0,0.0
10:05:19,561922.0,0.0,0.0
10:05:19,561036.0,0.0,0.0
10:05:19,561067.0,0.0,0.0
10:05:19,561498.0,0.0,0.0
10:05:19,560661.0,0.0,0.0
10:05:19,561803.0,0.0,0.0
10:05:19,561052.0,0.0,0.0
10:05:19,561167.0,0.0,0.0
10:05:19,561569.0,0.0,0.0
10:05:19,560646.0,0.0,0.0
10:05:19,561729.0,0.0,0.0
10:05:19,561059.0,0.0,0.0
10:05:19,561204.0,0.0,0.0
10:05:19,561593.0,0.0,0.0
10:05:19,560609.0,0.0,0.0
10:05:19,561667.0,0.0,0.0
10:05:19,561074.0,0.0,0.0
10:05:19,561354.0,0.0,0.0
10:05:19,561797.0,0.0,0.0
10:05:19,560714.0,0.0,0.0
10:05:19,561756.0,0.0,0.0
10:05:19,561081.0,0.0,0.0
10:05:19,561265.0,0.0,0.0
10:05:19,561821.0,0.0,0.0
10:05:19,560756.0,0.0,0.0
10:05:19,561756.0,0.0,0.0
10:05:19,561009.0,0.0,0.0
10:05:19,561218.0,0.0,0.0
10:05:19,561715.0,0.0,0.0
10:05:19,560814.0,0.0,0.0
10:05:19,561797.0,0.0,0.0
10:05:19,560984.0,0.0,0.0
10:05:19,561156.0,0.0,0.0
10:05:19,561661.0,0.0,0.0
10:05:19,560734.0,0.0,0.0
10:05:19,561735.0,0.0,0.0
10:05:19,560906.0,0.0,0.0
10:05:19,561051.0,0.0,0.0
10:05:19,561538.0,0.0,0.0
10:05:19,560667.0,0.0,0.0
10:05:19,561697.0,0.0,0.0
10:05:19,560976.0,0.0,0.0
10:05:19,561046.0,0.0,0.0
10:05:19,561516.0,0.0,0.0
10:05:19,560601.0,0.0,0.0
10:05:19,561692.0,0.0,0.0
10:05:19,561000.0,0.0,0.0
10:05:19,561073.0,0.0,0.0
10:05:19,561556.0,0.0,0.0
10:05:19,560513.0,0.0,0.0
10:05:19,561589.0,0.0,0.0
10:05:19,560921.0,0.0,0.0
10:05:19,561037.0,0.0,0.0
10:05:19,561487.0,0.0,0.0
10:05:19,560429.0,0.0,0.0
10:05:19,561364.0,0.0,0.0
10:05:19,560806.0,0.0,0.0
10:05:19,561153.0,0.0,0.0
10:05:19,561794.0,0.0,0.0
10:05:19,560654.0,0.0,0.0
10:05:19,561551.0,0.0,0.0
10:05:19,560639.0,0.0,0.0
10:05:19,560779.0,0.0,0.0
10:05:19,561423.0,0.0,0.0
10:05:19,560425.0,0.0,0.0
10:05:19,561298.0,0.0,0.0
10:05:19,560577.0,0.0,0.0
10:05:19,560765.0,0.0,0.0
10:05:19,561353.0,0.0,0.0
10:05:19,560409.0,0.0,0.0
10:05:19,561279.0,0.0,0.0
10:05:19,560526.0,0.0,0.0
10:05:19,560721.0,0.0,0.0
10:05:19,561294.0,0.0,0.0
10:05:19,560315.0,0.0,0.0
10:05:19,561370.0,0.0,0.0
10:05:19,560545.0,0.0,0.0
10:05:19,560606.0,0.0,0.0
10:05:19,561099.0,0.0,0.0
10:05:19,560196.0,0.0,0.0
10:05:19,561298.0,0.0,0.0
10:05:19,560586.0,0.0,0.0
10:05:19,560536.0,0.0,0.0
10:05:19,561036.0,0.0,0.0
10:05:19,560115.0,0.0,0.0
10:05:19,561246.0,0.0,0.0
10:05:19,560539.0,0.0,0.0
10:05:19,560546.0,0.0,0.0
10:05:19,561035.0,0.0,0.0
10:05:19,560046.0,0.0,0.0
10:05:19,561099.0,0.0,0.0
10:05:19,560493.0,0.0,0.0
10:05:19,560559.0,0.0,0.0
10:05:19,561028.0,0.0,0.0
10:05:19,559998.0,0.0,0.0
10:05:19,561039.0,0.0,0.0
10:05:19,560404.0,0.0,0.0
10:05:19,560519.0,0.0,0.0
10:05:19,561051.0,0.0,0.0
10:05:19,559981.0,0.0,0.0
10:05:19,560968.0,0.0,0.0
10:05:19,560329.0,0.0,0.0
10:05:19,560491.0,0.0,0.0
10:05:19,561091.0,0.0,0.0
10:05:19,560060.0,0.0,0.0
10:05:19,561016.0,0.0,0.0
10:05:19,560306.0,0.0,0.0
10:05:19,560465.0,0.0,0.0
10:05:19,561069.0,0.0,0.0
10:05:19,560081.0,0.0,0.0
10:05:19,561031.0,0.0,0.0
10:05:19,560282.0,0.0,0.0
10:05:19,560396.0,0.0,0.0
10:05:19,560999.0,0.0,0.0
10:05:20,560041.0,0.0,0.0
10:05:20,561075.0,0.0,0.0
10:05:20,560287.0,0.0,0.0
10:05:20,560249.0,0.0,0.0
10:05:20,560826.0,0.0,0.0
10:05:20,559896.0,0.0,0.0
10:05:20,561003.0,0.0,0.0
10:05:20,560309.0,0.0,0.0
10:05:20,560259.0,0.0,0.0
10:05:20,560799.0,0.0,0.0
10:05:20,559854.0,0.0,0.0
10:05:20,561010.0,0.0,0.0
10:05:20,560387.0,0.0,0.0
10:05:20,560321.0,0.0,0.0
10:05:20,560829.0,0.0,0.0
10:05:20,559819.0,0.0,0.0
10:05:20,560938.0,0.0,0.0
10:05:20,560363.0,0.0,0.0
10:05:20,560323.0,0.0,0.0
10:05:20,560875.0,0.0,0.0
10:05:20,559853.0,0.0,0.0
10:05:20,560826.0,0.0,0.0
10:05:20,560188.0,0.0,0.0
10:05:20,560239.0,0.0,0.0
10:05:20,560918.0,0.0,0.0
10:05:20,560070.0,0.0,0.0
10:05:20,561088.0,0.0,0.0
10:05:20,560438.0,0.0,0.0
10:05:20,560369.0,0.0,0.0
10:05:20,560884.0,0.0,0.0
10:05:20,559831.0,0.0,0.0
10:05:20,560777.0,0.0,0.0
10:05:20,560131.0,0.0,0.0
10:05:20,560253.0,0.0,0.0
10:05:20,560918.0,0.0,0.0
10:05:20,559854.0,0.0,0.0
10:05:20,560779.0,0.0,0.0
10:05:20,560116.0,0.0,0.0
10:05:20,560168.0,0.0,0.0
10:05:20,560883.0,0.0,0.0
10:05:20,559868.0,0.0,0.0
10:05:20,560856.0,0.0,0.0
10:05:20,560108.0,0.0,0.0
10:05:20,560051.0,0.0,0.0
10:05:20,560699.0,0.0,0.0
10:05:20,559758.0,0.0,0.0
10:05:20,560814.0,0.0,0.0
10:05:20,560137.0,0.0,0.0
10:05:20,560035.0,0.0,0.0
10:05:20,560656.0,0.0,0.0
10:05:20,559624.0,0.0,0.0
10:05:20,560724.0,0.0,0.0
10:05:20,560201.0,0.0,0.0
10:05:20,560035.0,0.0,0.0
10:05:20,560650.0,0.0,0.0
10:05:20,559647.0,0.0,0.0
10:05:20,560691.0,0.0,0.0
10:05:20,560178.0,0.0,0.0
10:05:20,560114.0,0.0,0.0
10:05:20,560634.0,0.0,0.0
10:05:20,559558.0,0.0,0.0
10:05:20,560588.0,0.0,0.0
10:05:20,560046.0,0.0,0.0
10:05:20,560111.0,0.0,0.0
10:05:20,560687.0,0.0,0.0
10:05:20,559584.0,0.0,0.0
10:05:20,560598.0,0.0,0.0
10:05:20,560033.0,0.0,0.0
10:05:20,560054.0,0.0,0.0
10:05:20,560703.0,0.0,0.0
10:05:20,559594.0,0.0,0.0
10:05:20,560484.0,0.0,0.0
10:05:20,559893.0,0.0,0.0
10:05:20,560019.0,0.0,0.0
10:05:20,560673.0,0.0,0.0
10:05:20,559576.0,0.0,0.0
10:05:20,560472.0,0.0,0.0
10:05:20,559853.0,0.0,0.0
10:05:20,559818.0,0.0,0.0
10:05:20,560543.0,0.0,0.0
10:05:20,559580.0,0.0,0.0
10:05:20,560492.0,0.0,0.0
10:05:20,559833.0,0.0,0.0
10:05:20,559755.0,0.0,0.0
10:05:20,560468.0,0.0,0.0
10:05:20,559476.0,0.0,0.0
10:05:20,560553.0,0.0,0.0
10:05:20,559859.0,0.0,0.0
10:05:20,559707.0,0.0,0.0
10:05:20,560394.0,0.0,0.0
10:05:20,559427.0,0.0,0.0
10:05:20,560512.0,0.0,0.0
10:05:20,559913.0,0.0,0.0
10:05:20,559701.0,0.0,0.0
10:05:20,560439.0,0.0,0.0
10:05:20,559436.0,0.0,0.0
10:05:20,560524.0,0.0,0.0
10:05:20,559992.0,0.0,0.0
10:05:20,559868.0,0.0,0.0
10:05:20,560478.0,0.0,0.0
10:05:20,559414.0,0.0,0.0
10:05:20,560460.0,0.0,0.0
10:05:20,559926.0,0.0,0.0
10:05:20,559834.0,0.0,0.0
10:05:20,560357.0,0.0,0.0
10:05:20,559365.0,0.0,0.0
10:05:20,560578.0,0.0,0.0
10:05:20,560105.0,0.0,0.0
10:05:20,560129.0,0.0,0.0
10:05:20,560661.0,0.0,0.0
10:05:20,559426.0,0.0,0.0
10:05:20,560369.0,0.0,0.0
10:05:20,559814.0,0.0,0.0
10:05:20,559889.0,0.0,0.0
10:05:20,560614.0,0.0,0.0
10:05:20,559502.0,0.0,0.0
10:05:20,560431.0,0.0,0.0
10:05:20,559904.0,0.0,0.0
10:05:20,559924.0,0.0,0.0
10:05:20,560678.0,0.0,0.0
10:05:20,559612.0,0.0,0.0
10:05:20,560532.0,0.0,0.0
10:05:20,559980.0,0.0,0.0
10:05:20,559873.0,0.0,0.0
10:05:20,560634.0,0.0,0.0
10:05:21,559650.0,0.0,0.0
10:05:21,560648.0,0.0,0.0
10:05:21,560038.0,0.0,0.0
10:05:21,559851.0,0.0,0.0
10:05:21,560592.0,0.0,0.0
10:05:21,559646.0,0.0,0.0
10:05:21,560692.0,0.0,0.0
10:05:21,560214.0,0.0,0.0
10:05:21,559988.0,0.0,0.0
10:05:21,560674.0,0.0,0.0
10:05:21,559731.0,0.0,0.0
10:05:21,560822.0,0.0,0.0
10:05:21,560329.0,0.0,0.0
10:05:21,560202.0,0.0,0.0
10:05:21,560856.0,0.0,0.0
10:05:21,559819.0,0.0,0.0
10:05:21,560863.0,0.0,0.0
10:05:21,560481.0,0.0,0.0
10:05:21,560399.0,0.0,0.0
10:05:21,561031.0,0.0,0.0
10:05:21,559940.0,0.0,0.0
10:05:21,560956.0,0.0,0.0
10:05:21,560493.0,0.0,0.0
10:05:21,560521.0,0.0,0.0
10:05:21,561216.0,0.0,0.0
10:05:21,560124.0,0.0,0.0
10:05:21,561132.0,0.0,0.0
10:05:21,560596.0,0.0,0.0
10:05:21,560558.0,0.0,0.0
10:05:21,561376.0,0.0,0.0
10:05:21,560258.0,0.0,0.0
10:05:21,561150.0,0.0,0.0
10:05:21,560629.0,0.0,0.0
10:05:21,560519.0,0.0,0.0
10:05:21,561401.0,0.0,0.0
10:05:21,560378.0,0.0,0.0
10:05:21,561289.0,0.0,0.0
10:05:21,560820.0,0.0,0.0
10:05:21,560676.0,0.0,0.0
10:05:21,561535.0,0.0,0.0
10:05:21,560589.0,0.0,0.0
10:05:21,561576.0,0.0,0.0
10:05:21,561024.0,0.0,0.0
10:05:21,560809.0,0.0,0.0
10:05:21,561565.0,0.0,0.0
10:05:21,560684.0,0.0,0.0
10:05:21,561822.0,0.0,0.0
10:05:21,561339.0,0.0,0.0
10:05:21,561149.0,0.0,0.0
10:05:21,561914.0,0.0,0.0
10:05:21,560946.0,0.0,0.0
10:05:21,562013.0,0.0,0.0
10:05:21,561525.0,0.0,0.0
10:05:21,561360.0,0.0,0.0
10:05:21,562034.0,0.0,0.0
10:05:21,560939.0,0.0,0.0
10:05:21,561923.0,0.0,0.0
10:05:21,561442.0,0.0,0.0
10:05:21,561340.0,0.0,0.0
10:05:21,562163.0,0.0,0.0
10:05:21,561189.0,0.0,0.0
10:05:21,562105.0,0.0,0.0
10:05:21,561619.0,0.0,0.0
10:05:21,561423.0,0.0,0.0
10:05:21,562228.0,0.0,0.0
10:05:21,561130.0,0.0,0.0
10:05:21,562026.0,0.0,0.0
10:05:21,561563.0,0.0,0.0
10:05:21,561529.0,0.0,0.0
10:05:21,562340.0,0.0,0.0
10:05:21,561268.0,0.0,0.0
10:05:21,562127.0,0.0,0.0
10:05:21,561658.0,0.0,0.0
10:05:21,561441.0,0.0,0.0
10:05:21,562323.0,0.0,0.0
10:05:21,561332.0,0.0,0.0
10:05:21,562277.0,0.0,0.0
10:05:21,561670.0,0.0,0.0
10:05:21,561411.0,0.0,0.0
10:05:21,562219.0,0.0,0.0
10:05:21,561231.0,0.0,0.0
10:05:21,562234.0,0.0,0.0
10:05:21,561665.0,0.0,0.0
10:05:21,561332.0,0.0,0.0
10:05:21,562139.0,0.0,0.0
10:05:21,561207.0,0.0,0.0
10:05:21,562223.0,0.0,0.0
10:05:21,561766.0,0.0,0.0
10:05:21,561461.0,0.0,0.0
10:05:21,562188.0,0.0,0.0
10:05:21,561226.0,0.0,0.0
10:05:21,562283.0,0.0,0.0
10:05:21,561879.0,0.0,0.0
10:05:21,561633.0,0.0,0.0
10:05:21,562284.0,0.0,0.0
10:05:21,561187.0,0.0,0.0
10:05:21,562218.0,0.0,0.0
10:05:21,561844.0,0.0,0.0
10:05:21,561731.0,0.0,0.0
10:05:21,562454.0,0.0,0.0
10:05:21,561369.0,0.0,0.0
10:05:21,562348.0,0.0,0.0
10:05:21,562029.0,0.0,0.0
10:05:21,561946.0,0.0,0.0
10:05:21,562823.0,0.0,0.0
10:05:21,561679.0,0.0,0.0
10:05:21,562565.0,0.0,0.0
10:05:21,562182.0,0.0,0.0
10:05:21,562039.0,0.0,0.0
10:05:21,562904.0,0.0,0.0
10:05:21,561892.0,0.0,0.0
10:05:21,562751.0,0.0,0.0
10:05:21,562296.0,0.0,0.0
10:05:21,562129.0,0.0,0.0
10:05:21,563023.0,0.0,0.0
10:05:21,562009.0,0.0,0.0
10:05:21,562941.0,0.0,0.0
10:05:21,562464.0,0.0,0.0
10:05:21,562189.0,0.0,0.0
10:05:21,563073.0,0.0,0.0
10:05:21,562137.0,0.0,0.0
10:05:21,563084.0,0.0,0.0
10:05:21,562641.0,0.0,0.0
10:05:21,562318.0,0.0,0.0
10:05:21,563141.0,0.0,0.0
10:05:22,562109.0,0.0,0.0
10:05:22,563120.0,0.0,0.0
10:05:22,562677.0,0.0,0.0
10:05:22,562343.0,0.0,0.0
10:05:22,563123.0,0.0,0.0
10:05:22,562030.0,0.0,0.0
10:05:22,562975.0,0.0,0.0
10:05:22,562613.0,0.0,0.0
10:05:22,562358.0,0.0,0.0
10:05:22,563150.0,0.0,0.0
10:05:22,562043.0,0.0,0.0
10:05:22,562951.0,0.0,0.0
10:05:22,562496.0,0.0,0.0
10:05:22,562184.0,0.0,0.0
10:05:22,562909.0,0.0,0.0
10:05:22,561724.0,0.0,0.0
10:05:22,562619.0,0.0,0.0
10:05:22,562256.0,0.0,0.0
10:05:22,562055.0,0.0,0.0
10:05:22,562851.0,0.0,0.0
10:05:22,561687.0,0.0,0.0
10:05:22,562479.0,0.0,0.0
10:05:22,562047.0,0.0,0.0
10:05:22,561848.0,0.0,0.0
10:05:22,562719.0,0.0,0.0
10:05:22,561644.0,0.0,0.0
10:05:22,562478.0,0.0,0.0
10:05:22,562027.0,0.0,0.0
10:05:22,561762.0,0.0,0.0
10:05:22,562666.0,0.0,0.0
10:05:22,561636.0,0.0,0.0
10:05:22,562549.0,0.0,0.0
10:05:22,562089.0,0.0,0.0
10:05:22,561801.0,0.0,0.0
10:05:22,562702.0,0.0,0.0
10:05:22,561727.0,0.0,0.0
10:05:22,562746.0,0.0,0.0
10:05:22,562356.0,0.0,0.0
10:05:22,561996.0,0.0,0.0
10:05:22,562838.0,0.0,0.0
10:05:22,561826.0,0.0,0.0
10:05:22,562844.0,0.0,0.0
10:05:22,562473.0,0.0,0.0
10:05:22,562105.0,0.0,0.0
10:05:22,562889.0,0.0,0.0
10:05:22,561806.0,0.0,0.0
10:05:22,562738.0,0.0,0.0
10:05:22,562415.0,0.0,0.0
10:05:22,562154.0,0.0,0.0
10:05:22,562867.0,0.0,0.0
10:05:22,561704.0,0.0,0.0
10:05:22,562618.0,0.0,0.0
10:05:22,562311.0,0.0,0.0
10:05:22,562066.0,0.0,0.0
10:05:22,562901.0,0.0,0.0
10:05:22,561719.0,0.0,0.0
10:05:22,562570.0,0.0,0.0
10:05:22,562236.0,0.0,0.0
10:05:22,562070.0,0.0,0.0
10:05:22,563011.0,0.0,0.0
10:05:22,561902.0,0.0,0.0
10:05:22,562722.0,0.0,0.0
10:05:22,562409.0,0.0,0.0
10:05:22,562153.0,0.0,0.0
10:05:22,563093.0,0.0,0.0
10:05:22,562074.0,0.0,0.0
10:05:22,562913.0,0.0,0.0
10:05:22,562533.0,0.0,0.0
10:05:22,562203.0,0.0,0.0
10:05:22,563115.0,0.0,0.0
10:05:22,562127.0,0.0,0.0
10:05:22,563003.0,0.0,0.0
10:05:22,562581.0,0.0,0.0
10:05:22,562171.0,0.0,0.0
10:05:22,563047.0,0.0,0.0
10:05:22,562048.0,0.0,0.0
10:05:22,562958.0,0.0,0.0
10:05:22,562466.0,0.0,0.0
10:05:22,562068.0,0.0,0.0
10:05:22,562848.0,0.0,0.0
10:05:22,561799.0,0.0,0.0
10:05:22,562836.0,0.0,0.0
10:05:22,562531.0,0.0,0.0
10:05:22,562156.0,0.0,0.0
10:05:22,562913.0,0.0,0.0
10:05:22,561744.0,0.0,0.0
10:05:22,562632.0,0.0,0.0
10:05:22,562293.0,0.0,0.0
10:05:22,561965.0,0.0,0.0
10:05:22,562779.0,0.0,0.0
10:05:22,561686.0,0.0,0.0
10:05:22,562645.0,0.0,0.0
10:05:22,562298.0,0.0,0.0
10:05:22,561936.0,0.0,0.0
10:05:22,562755.0,0.0,0.0
10:05:22,561590.0,0.0,0.0
10:05:22,562423.0,0.0,0.0
10:05:22,562138.0,0.0,0.0
10:05:22,561806.0,0.0,0.0
10:05:22,562740.0,0.0,0.0
10:05:22,561519.0,0.0,0.0
10:05:22,562204.0,0.0,0.0
10:05:22,561859.0,0.0,0.0
10:05:22,561517.0,0.0,0.0
10:05:22,562400.0,0.0,0.0
10:05:22,561229.0,0.0,0.0
10:05:22,561926.0,0.0,0.0
10:05:22,561527.0,0.0,0.0
10:05:22,561180.0,0.0,0.0
10:05:22,562056.0,0.0,0.0
10:05:22,560996.0,0.0,0.0
10:05:22,561670.0,0.0,0.0
10:05:22,561328.0,0.0,0.0
10:05:22,561038.0,0.0,0.0
10:05:22,561718.0,0.0,0.0
10:05:22,561081.0,0.0,0.0
10:05:22,561879.0,0.0,0.0
10:05:22,561586.0,0.0,0.0
10:05:22,561549.0,0.0,0.0
10:05:22,562173.0,0.0,0.0
10:05:22,561709.0,0.0,0.0
10:05:22,562471.0,0.0,0.0
10:05:22,562204.0,0.0,0.0
10:05:22,562076.0,0.0,0.0
10:05:22,562558.0,0.0,0.0
10:05:23,562084.0,0.0,0.0
10:05:23,562734.0,0.0,0.0
10:05:23,562534.0,0.0,0.0
10:05:23,562473.0,0.0,0.0
10:05:23,562792.0,0.0,0.0
10:05:23,562356.0,0.0,0.0
10:05:23,562884.0,0.0,0.0
10:05:23,562776.0,0.0,0.0
10:05:23,562967.0,0.0,0.0
10:05:23,563362.0,0.0,0.0
10:05:23,562956.0,0.0,0.0
10:05:23,563476.0,0.0,0.0
10:05:23,563434.0,0.0,0.0
10:05:23,563346.0,0.0,0.0
10:05:23,563633.0,0.0,0.0
10:05:23,563033.0,0.0,0.0
10:05:23,563285.0,0.0,0.0
10:05:23,563042.0,0.0,0.0
10:05:23,562970.0,0.0,0.0
10:05:23,563269.0,0.0,0.0
10:05:23,562900.0,0.0,0.0
10:05:23,563229.0,0.0,0.0
10:05:23,562929.0,0.0,0.0
10:05:23,562944.0,0.0,0.0
10:05:23,563421.0,0.0,0.0
10:05:23,563154.0,0.0,0.0
10:05:23,563721.0,0.0,0.0
10:05:23,563582.0,0.0,0.0
10:05:23,563721.0,0.0,0.0
10:05:23,564374.0,0.0,0.0
10:05:23,563998.0,0.0,0.0
10:05:23,564580.0,0.0,0.0
10:05:23,564105.0,0.0,0.0
10:05:23,563876.0,0.0,0.0
10:05:23,564290.0,0.0,0.0
10:05:23,563824.0,0.0,0.0
10:05:23,564311.0,0.0,0.0
10:05:23,563972.0,0.0,0.0
10:05:23,563746.0,0.0,0.0
10:05:23,564223.0,0.0,0.0
10:05:23,563755.0,0.0,0.0
10:05:23,564189.0,0.0,0.0
10:05:23,564026.0,0.0,0.0
10:05:23,563871.0,0.0,0.0
10:05:23,564219.0,0.0,0.0
10:05:23,563912.0,0.0,0.0
10:05:23,564144.0,0.0,0.0
10:05:23,563598.0,0.0,0.0
10:05:23,563566.0,0.0,0.0
10:05:23,564029.0,0.0,0.0
10:05:23,563673.0,0.0,0.0
10:05:23,563804.0,0.0,0.0
10:05:23,563384.0,0.0,0.0
10:05:23,563374.0,0.0,0.0
10:05:23,563641.0,0.0,0.0
10:05:23,563182.0,0.0,0.0
10:05:23,563129.0,0.0,0.0
10:05:23,562826.0,0.0,0.0
10:05:23,562900.0,0.0,0.0
10:05:23,563219.0,0.0,0.0
10:05:23,562888.0,0.0,0.0
10:05:23,562615.0,0.0,0.0
10:05:23,562083.0,0.0,0.0
10:05:23,562108.0,0.0,0.0
10:05:23,562453.0,0.0,0.0
10:05:23,562159.0,0.0,0.0
10:05:23,562148.0,0.0,0.0
10:05:23,561603.0,0.0,0.0
10:05:23,561508.0,0.0,0.0
10:05:23,561563.0,0.0,0.0
10:05:23,560963.0,0.0,0.0
10:05:23,561273.0,0.0,0.0
10:05:23,561009.0,0.0,0.0
10:05:23,561214.0,0.0,0.0
10:05:23,561871.0,0.0,0.0
10:05:23,561677.0,0.0,0.0
10:05:23,562191.0,0.0,0.0
10:05:23,561913.0,0.0,0.0
10:05:23,561678.0,0.0,0.0
10:05:23,561809.0,0.0,0.0
10:05:23,561312.0,0.0,0.0
10:05:23,561781.0,0.0,0.0
10:05:23,561658.0,0.0,0.0
10:05:23,561698.0,0.0,0.0
10:05:23,562013.0,0.0,0.0
10:05:23,561504.0,0.0,0.0
10:05:23,561899.0,0.0,0.0
10:05:23,561772.0,0.0,0.0
10:05:23,561632.0,0.0,0.0
10:05:23,561769.0,0.0,0.0
10:05:23,561323.0,0.0,0.0
10:05:23,561726.0,0.0,0.0
10:05:23,561501.0,0.0,0.0
10:05:23,561251.0,0.0,0.0
10:05:23,561774.0,0.0,0.0
10:05:23,561381.0,0.0,0.0
10:05:23,561914.0,0.0,0.0
10:05:23,561756.0,0.0,0.0
10:05:23,561662.0,0.0,0.0
10:05:23,562168.0,0.0,0.0
10:05:23,561923.0,0.0,0.0
10:05:23,561779.0,0.0,0.0
10:05:23,561122.0,0.0,0.0
10:05:23,561187.0,0.0,0.0
10:05:23,561718.0,0.0,0.0
10:05:23,561481.0,0.0,0.0
10:05:23,561661.0,0.0,0.0
10:05:23,561201.0,0.0,0.0
10:05:23,560926.0,0.0,0.0
10:05:23,561089.0,0.0,0.0
10:05:23,560821.0,0.0,0.0
10:05:23,561045.0,0.0,0.0
10:05:23,560610.0,0.0,0.0
10:05:23,560284.0,0.0,0.0
10:05:23,560560.0,0.0,0.0
10:05:23,560373.0,0.0,0.0
10:05:23,560821.0,0.0,0.0
10:05:23,560773.0,0.0,0.0
10:05:23,560985.0,0.0,0.0
10:05:23,561794.0,0.0,0.0
10:05:23,561516.0,0.0,0.0
10:05:23,561684.0,0.0,0.0
10:05:23,561252.0,0.0,0.0
10:05:23,561004.0,0.0,0.0
10:05:23,561443.0,0.0,0.0
10:05:24,560853.0,0.0,0.0
10:05:24,561306.0,0.0,0.0
10:05:24,561218.0,0.0,0.0
10:05:24,561146.0,0.0,0.0
10:05:24,561626.0,0.0,0.0
10:05:24,561177.0,0.0,0.0
10:05:24,561562.0,0.0,0.0
10:05:24,561311.0,0.0,0.0
10:05:24,560926.0,0.0,0.0
10:05:24,561258.0,0.0,0.0
10:05:24,560778.0,0.0,0.0
10:05:24,561211.0,0.0,0.0
10:05:24,560989.0,0.0,0.0
10:05:24,561003.0,0.0,0.0
10:05:24,561429.0,0.0,0.0
10:05:24,560458.0,0.0,0.0
10:05:24,560706.0,0.0,0.0
10:05:24,560910.0,0.0,0.0
10:05:24,560743.0,0.0,0.0
10:05:24,560836.0,0.0,0.0
10:05:24,560546.0,0.0,0.0
10:05:24,560803.0,0.0,0.0
10:05:24,560701.0,0.0,0.0
10:05:24,560564.0,0.0,0.0
10:05:24,560826.0,0.0,0.0
10:05:24,560526.0,0.0,0.0
10:05:24,560760.0,0.0,0.0
10:05:24,560391.0,0.0,0.0
10:05:24,560047.0,0.0,0.0
10:05:24,560257.0,0.0,0.0
10:05:24,559719.0,0.0,0.0
10:05:24,559847.0,0.0,0.0
10:05:24,559705.0,0.0,0.0
10:05:24,559556.0,0.0,0.0
10:05:24,559973.0,0.0,0.0
10:05:24,559713.0,0.0,0.0
10:05:24,560389.0,0.0,0.0
10:05:24,560648.0,0.0,0.0
10:05:24,560701.0,0.0,0.0
10:05:24,561113.0,0.0,0.0
10:05:24,560503.0,0.0,0.0
10:05:24,560989.0,0.0,0.0
10:05:24,560818.0,0.0,0.0
10:05:24,560550.0,0.0,0.0
10:05:24,560858.0,0.0,0.0
10:05:24,559989.0,0.0,0.0
10:05:24,560258.0,0.0,0.0
10:05:24,560103.0,0.0,0.0
10:05:24,560081.0,0.0,0.0
10:05:24,560669.0,0.0,0.0
10:05:24,560086.0,0.0,0.0
10:05:24,560440.0,0.0,0.0
10:05:24,560159.0,0.0,0.0
10:05:24,560078.0,0.0,0.0
10:05:24,560475.0,0.0,0.0
10:05:24,559818.0,0.0,0.0
10:05:24,559986.0,0.0,0.0
10:05:24,559777.0,0.0,0.0
10:05:24,559662.0,0.0,0.0
10:05:24,559951.0,0.0,0.0
10:05:24,559228.0,0.0,0.0
10:05:24,559253.0,0.0,0.0
10:05:24,559229.0,0.0,0.0
10:05:24,559104.0,0.0,0.0
10:05:24,559394.0,0.0,0.0
10:05:24,558989.0,0.0,0.0
10:05:24,559468.0,0.0,0.0
10:05:24,559482.0,0.0,0.0
10:05:24,559234.0,0.0,0.0
10:05:24,559556.0,0.0,0.0
10:05:24,559234.0,0.0,0.0
10:05:24,559740.0,0.0,0.0
10:05:24,559509.0,0.0,0.0
10:05:24,559244.0,0.0,0.0
10:05:24,559467.0,0.0,0.0
10:05:24,558962.0,0.0,0.0
10:05:24,559254.0,0.0,0.0
10:05:24,559233.0,0.0,0.0
10:05:24,559332.0,0.0,0.0
10:05:24,559922.0,0.0,0.0
10:05:24,559753.0,0.0,0.0
10:05:24,560181.0,0.0,0.0
10:05:24,559929.0,0.0,0.0
10:05:24,560008.0,0.0,0.0
10:05:24,560648.0,0.0,0.0
10:05:24,560134.0,0.0,0.0
10:05:24,560527.0,0.0,0.0
10:05:24,560404.0,0.0,0.0
10:05:24,560195.0,0.0,0.0
10:05:24,560665.0,0.0,0.0
10:05:24,560088.0,0.0,0.0
10:05:24,560333.0,0.0,0.0
10:05:24,560161.0,0.0,0.0
10:05:24,560257.0,0.0,0.0
10:05:24,560791.0,0.0,0.0
10:05:24,560478.0,0.0,0.0
10:05:24,560649.0,0.0,0.0
10:05:24,560170.0,0.0,0.0
10:05:24,559954.0,0.0,0.0
10:05:24,560171.0,0.0,0.0
10:05:24,559593.0,0.0,0.0
10:05:24,559881.0,0.0,0.0
10:05:24,559635.0,0.0,0.0
10:05:24,559524.0,0.0,0.0
10:05:24,559859.0,0.0,0.0
10:05:24,559234.0,0.0,0.0
10:05:24,559574.0,0.0,0.0
10:05:24,559643.0,0.0,0.0
10:05:24,559450.0,0.0,0.0
10:05:24,559673.0,0.0,0.0
10:05:24,559386.0,0.0,0.0
10:05:24,559763.0,0.0,0.0
10:05:24,559921.0,0.0,0.0
10:05:24,559851.0,0.0,0.0
10:05:24,560164.0,0.0,0.0
10:05:24,559859.0,0.0,0.0
10:05:24,560026.0,0.0,0.0
10:05:24,559829.0,0.0,0.0
10:05:24,559683.0,0.0,0.0
10:05:24,560004.0,0.0,0.0
10:05:24,559844.0,0.0,0.0
10:05:24,560368.0,0.0,0.0
10:05:24,560399.0,0.0,0.0
10:05:24,560283.0,0.0,0.0
10:05:24,560744.0,0.0,0.0
10:05:25,560306.0,0.0,0.0
10:05:25,560668.0,0.0,0.0
10:05:25,560549.0,0.0,0.0
10:05:25,560248.0,0.0,0.0
10:05:25,560684.0,0.0,0.0
10:05:25,559841.0,0.0,0.0
10:05:25,559938.0,0.0,0.0
10:05:25,559746.0,0.0,0.0
10:05:25,559485.0,0.0,0.0
10:05:25,559890.0,0.0,0.0
10:05:25,559338.0,0.0,0.0
10:05:25,559841.0,0.0,0.0
10:05:25,559569.0,0.0,0.0
10:05:25,559126.0,0.0,0.0
10:05:25,559300.0,0.0,0.0
10:05:25,559048.0,0.0,0.0
10:05:25,559617.0,0.0,0.0
10:05:25,559316.0,0.0,0.0
10:05:25,558596.0,0.0,0.0
10:05:25,558744.0,0.0,0.0
10:05:25,558367.0,0.0,0.0
10:05:25,558586.0,0.0,0.0
10:05:25,558372.0,0.0,0.0
10:05:25,558033.0,0.0,0.0
10:05:25,558313.0,0.0,0.0
10:05:25,558024.0,0.0,0.0
10:05:25,558326.0,0.0,0.0
10:05:25,558286.0,0.0,0.0
10:05:25,558176.0,0.0,0.0
10:05:25,558473.0,0.0,0.0
10:05:25,558474.0,0.0,0.0
10:05:25,558881.0,0.0,0.0
10:05:25,558758.0,0.0,0.0
10:05:25,558685.0,0.0,0.0
10:05:25,558859.0,0.0,0.0
10:05:25,558393.0,0.0,0.0
10:05:25,558832.0,0.0,0.0
10:05:25,558614.0,0.0,0.0
10:05:25,558609.0,0.0,0.0
10:05:25,559060.0,0.0,0.0
10:05:25,558733.0,0.0,0.0
10:05:25,559042.0,0.0,0.0
10:05:25,558970.0,0.0,0.0
10:05:25,558939.0,0.0,0.0
10:05:25,559403.0,0.0,0.0
10:05:25,558978.0,0.0,0.0
10:05:25,559333.0,0.0,0.0
10:05:25,559284.0,0.0,0.0
10:05:25,558993.0,0.0,0.0
10:05:25,559291.0,0.0,0.0
10:05:25,558566.0,0.0,0.0
10:05:25,559201.0,0.0,0.0
10:05:25,559256.0,0.0,0.0
10:05:25,558872.0,0.0,0.0
10:05:25,559280.0,0.0,0.0
10:05:25,558836.0,0.0,0.0
10:05:25,559234.0,0.0,0.0
10:05:25,558978.0,0.0,0.0
10:05:25,558537.0,0.0,0.0
10:05:25,558974.0,0.0,0.0
10:05:25,558838.0,0.0,0.0
10:05:25,559099.0,0.0,0.0
10:05:25,559267.0,0.0,0.0
10:05:25,558811.0,0.0,0.0
10:05:25,558864.0,0.0,0.0
10:05:25,558406.0,0.0,0.0
10:05:25,558521.0,0.0,0.0
10:05:25,558439.0,0.0,0.0
10:05:25,558357.0,0.0,0.0
10:05:25,558558.0,0.0,0.0
10:05:25,558209.0,0.0,0.0
10:05:25,558571.0,0.0,0.0
10:05:25,558435.0,0.0,0.0
10:05:25,558427.0,0.0,0.0
10:05:25,558933.0,0.0,0.0
10:05:25,558429.0,0.0,0.0
10:05:25,558638.0,0.0,0.0
10:05:25,558663.0,0.0,0.0
10:05:25,558578.0,0.0,0.0
10:05:25,558775.0,0.0,0.0
10:05:25,558233.0,0.0,0.0
10:05:25,558576.0,0.0,0.0
10:05:25,558834.0,0.0,0.0
10:05:25,559009.0,0.0,0.0
10:05:25,559634.0,0.0,0.0
10:05:25,559099.0,0.0,0.0
10:05:25,559535.0,0.0,0.0
10:05:25,559551.0,0.0,0.0
10:05:25,559371.0,0.0,0.0
10:05:25,559709.0,0.0,0.0
10:05:25,558960.0,0.0,0.0
10:05:25,559399.0,0.0,0.0
10:05:25,559158.0,0.0,0.0
10:05:25,558261.0,0.0,0.0
10:05:25,558702.0,0.0,0.0
10:05:25,558136.0,0.0,0.0
10:05:25,558525.0,0.0,0.0
10:05:25,558611.0,0.0,0.0
10:05:25,558406.0,0.0,0.0
10:05:25,558718.0,0.0,0.0
10:05:25,558087.0,0.0,0.0
10:05:25,558359.0,0.0,0.0
10:05:25,558083.0,0.0,0.0
10:05:25,557686.0,0.0,0.0
10:05:25,557964.0,0.0,0.0
10:05:25,557348.0,0.0,0.0
10:05:25,557443.0,0.0,0.0
10:05:25,557135.0,0.0,0.0
10:05:25,556522.0,0.0,0.0
10:05:25,556806.0,0.0,0.0
10:05:25,556444.0,0.0,0.0
10:05:25,556904.0,0.0,0.0
10:05:25,556757.0,0.0,0.0
10:05:25,556888.0,0.0,0.0
10:05:25,557188.0,0.0,0.0
10:05:25,556701.0,0.0,0.0
10:05:25,556726.0,0.0,0.0
10:05:25,556892.0,0.0,0.0
10:05:25,556728.0,0.0,0.0
10:05:25,557143.0,0.0,0.0
10:05:25,556386.0,0.0,0.0
10:05:25,556624.0,0.0,0.0
10:05:25,556771.0,0.0,0.0
10:05:25,556685.0,0.0,0.0
10:05:25,557379.0,0.0,0.0
10:05:26,556891.0,0.0,0.0
10:05:26,557258.0,0.0,0.0
10:05:26,557726.0,0.0,0.0
10:05:26,557888.0,0.0,0.0
10:05:26,558721.0,0.0,0.0
10:05:26,558382.0,0.0,0.0
10:05:26,558884.0,0.0,0.0
10:05:26,558950.0,0.0,0.0
10:05:26,558409.0,0.0,0.0
10:05:26,558788.0,0.0,0.0
10:05:26,558321.0,0.0,0.0
10:05:26,558730.0,0.0,0.0
10:05:26,558811.0,0.0,0.0
10:05:26,558413.0,0.0,0.0
10:05:26,558859.0,0.0,0.0
10:05:26,558078.0,0.0,0.0
10:05:26,558396.0,0.0,0.0
10:05:26,558122.0,0.0,0.0
10:05:26,557888.0,0.0,0.0
10:05:26,558683.0,0.0,0.0
10:05:26,558393.0,0.0,0.0
10:05:26,558789.0,0.0,0.0
10:05:26,558408.0,0.0,0.0
10:05:26,557530.0,0.0,0.0
10:05:26,558075.0,0.0,0.0
10:05:26,557742.0,0.0,0.0
10:05:26,558536.0,0.0,0.0
10:05:26,558626.0,0.0,0.0
10:05:26,558263.0,0.0,0.0
10:05:26,558701.0,0.0,0.0
10:05:26,558242.0,0.0,0.0
10:05:26,558779.0,0.0,0.0
10:05:26,559157.0,0.0,0.0
10:05:26,558673.0,0.0,0.0
10:05:26,559139.0,0.0,0.0
10:05:26,558431.0,0.0,0.0
10:05:26,558716.0,0.0,0.0
10:05:26,558871.0,0.0,0.0
10:05:26,558371.0,0.0,0.0
10:05:26,558872.0,0.0,0.0
10:05:26,558086.0,0.0,0.0
10:05:26,558613.0,0.0,0.0
10:05:26,558784.0,0.0,0.0
10:05:26,558029.0,0.0,0.0
10:05:26,559043.0,0.0,0.0
10:05:26,558290.0,0.0,0.0
10:05:26,558658.0,0.0,0.0
10:05:26,558816.0,0.0,0.0
10:05:26,558063.0,0.0,0.0
10:05:26,559025.0,0.0,0.0
10:05:26,558218.0,0.0,0.0
10:05:26,558387.0,0.0,0.0
10:05:26,558219.0,0.0,0.0
10:05:26,557348.0,0.0,0.0
10:05:26,557914.0,0.0,0.0
10:05:26,557137.0,0.0,0.0
10:05:26,557431.0,0.0,0.0
10:05:26,557490.0,0.0,0.0
10:05:26,557074.0,0.0,0.0
10:05:26,557855.0,0.0,0.0
10:05:26,557197.0,0.0,0.0
10:05:26,557464.0,0.0,0.0
10:05:26,557411.0,0.0,0.0
10:05:26,556946.0,0.0,0.0
10:05:26,557739.0,0.0,0.0
10:05:26,557188.0,0.0,0.0
10:05:26,557419.0,0.0,0.0
10:05:26,557502.0,0.0,0.0
10:05:26,557256.0,0.0,0.0
10:05:26,557923.0,0.0,0.0
10:05:26,557020.0,0.0,0.0
10:05:26,557254.0,0.0,0.0
10:05:26,557144.0,0.0,0.0
10:05:26,556594.0,0.0,0.0
10:05:26,557586.0,0.0,0.0
10:05:26,556800.0,0.0,0.0
10:05:26,557298.0,0.0,0.0
10:05:26,557383.0,0.0,0.0
10:05:26,556526.0,0.0,0.0
10:05:26,557378.0,0.0,0.0
10:05:26,556521.0,0.0,0.0
10:05:26,556927.0,0.0,0.0
10:05:26,557225.0,0.0,0.0
10:05:26,556547.0,0.0,0.0
10:05:26,557649.0,0.0,0.0
10:05:26,556806.0,0.0,0.0
10:05:26,556800.0,0.0,0.0
10:05:26,557106.0,0.0,0.0
10:05:26,556566.0,0.0,0.0
10:05:26,557618.0,0.0,0.0
10:05:26,556754.0,0.0,0.0
10:05:26,556976.0,0.0,0.0
10:05:26,557113.0,0.0,0.0
10:05:26,556426.0,0.0,0.0
10:05:26,557471.0,0.0,0.0
10:05:26,556771.0,0.0,0.0
10:05:26,557248.0,0.0,0.0
10:05:26,557384.0,0.0,0.0
10:05:26,556571.0,0.0,0.0
10:05:26,557543.0,0.0,0.0
10:05:26,557074.0,0.0,0.0
10:05:26,557710.0,0.0,0.0
10:05:26,557799.0,0.0,0.0
10:05:26,556743.0,0.0,0.0
10:05:26,557473.0,0.0,0.0
10:05:26,556836.0,0.0,0.0
10:05:26,557478.0,0.0,0.0
10:05:26,557718.0,0.0,0.0
10:05:26,557004.0,0.0,0.0
10:05:26,557856.0,0.0,0.0
10:05:26,556906.0,0.0,0.0
10:05:26,557354.0,0.0,0.0
10:05:26,557660.0,0.0,0.0
10:05:26,556941.0,0.0,0.0
10:05:26,557769.0,0.0,0.0
10:05:26,556952.0,0.0,0.0
10:05:26,557406.0,0.0,0.0
10:05:26,557688.0,0.0,0.0
10:05:26,556930.0,0.0,0.0
10:05:26,557746.0,0.0,0.0
10:05:26,556796.0,0.0,0.0
10:05:26,556985.0,0.0,0.0
10:05:26,557219.0,0.0,0.0
10:05:26,556608.0,0.0,0.0
10:05:26,557647.0,0.0,0.0
10:05:27,556895.0,0.0,0.0
10:05:27,557078.0,0.0,0.0
10:05:27,557279.0,0.0,0.0
10:05:27,556588.0,0.0,0.0
10:05:27,557594.0,0.0,0.0
10:05:27,556864.0,0.0,0.0
10:05:27,557171.0,0.0,0.0
10:05:27,557393.0,0.0,0.0
10:05:27,556708.0,0.0,0.0
10:05:27,557725.0,0.0,0.0
10:05:27,557005.0,0.0,0.0
10:05:27,557413.0,0.0,0.0
10:05:27,557585.0,0.0,0.0
10:05:27,556909.0,0.0,0.0
10:05:27,557784.0,0.0,0.0
10:05:27,557108.0,0.0,0.0
10:05:27,557553.0,0.0,0.0
10:05:27,557726.0,0.0,0.0
10:05:27,557028.0,0.0,0.0
10:05:27,557891.0,0.0,0.0
10:05:27,557193.0,0.0,0.0
10:05:27,557546.0,0.0,0.0
10:05:27,557766.0,0.0,0.0
10:05:27,557096.0,0.0,0.0
10:05:27,557758.0,0.0,0.0
10:05:27,557176.0,0.0,0.0
10:05:27,557576.0,0.0,0.0
10:05:27,557828.0,0.0,0.0
10:05:27,557318.0,0.0,0.0
10:05:27,557988.0,0.0,0.0
10:05:27,557363.0,0.0,0.0
10:05:27,557633.0,0.0,0.0
10:05:27,557913.0,0.0,0.0
10:05:27,557360.0,0.0,0.0
10:05:27,557898.0,0.0,0.0
10:05:27,557105.0,0.0,0.0
10:05:27,557254.0,0.0,0.0
10:05:27,557387.0,0.0,0.0
10:05:27,556966.0,0.0,0.0
10:05:27,557688.0,0.0,0.0
10:05:27,557161.0,0.0,0.0
10:05:27,557325.0,0.0,0.0
10:05:27,557308.0,0.0,0.0
10:05:27,556829.0,0.0,0.0
10:05:27,557493.0,0.0,0.0
10:05:27,556934.0,0.0,0.0
10:05:27,557203.0,0.0,0.0
10:05:27,557243.0,0.0,0.0
10:05:27,556752.0,0.0,0.0
10:05:27,557283.0,0.0,0.0
10:05:27,556711.0,0.0,0.0
10:05:27,557030.0,0.0,0.0
10:05:27,557193.0,0.0,0.0
10:05:27,556873.0,0.0,0.0
10:05:27,557437.0,0.0,0.0
10:05:27,556756.0,0.0,0.0
10:05:27,556996.0,0.0,0.0
10:05:27,557016.0,0.0,0.0
10:05:27,556443.0,0.0,0.0
10:05:27,557122.0,0.0,0.0
10:05:27,556509.0,0.0,0.0
10:05:27,556859.0,0.0,0.0
10:05:27,557079.0,0.0,0.0
10:05:27,556448.0,0.0,0.0
10:05:27,557131.0,0.0,0.0
10:05:27,556401.0,0.0,0.0
10:05:27,556704.0,0.0,0.0
10:05:27,556967.0,0.0,0.0
10:05:27,556364.0,0.0,0.0
10:05:27,557393.0,0.0,0.0
10:05:27,556589.0,0.0,0.0
10:05:27,556834.0,0.0,0.0
10:05:27,557170.0,0.0,0.0
10:05:27,556411.0,0.0,0.0
10:05:27,557484.0,0.0,0.0
10:05:27,556758.0,0.0,0.0
10:05:27,556907.0,0.0,0.0
10:05:27,557222.0,0.0,0.0
10:05:27,556403.0,0.0,0.0
10:05:27,557602.0,0.0,0.0
10:05:27,556872.0,0.0,0.0
10:05:27,557183.0,0.0,0.0
10:05:27,557413.0,0.0,0.0
10:05:27,556495.0,0.0,0.0
10:05:27,557640.0,0.0,0.0
10:05:27,556964.0,0.0,0.0
10:05:27,557457.0,0.0,0.0
10:05:27,557766.0,0.0,0.0
10:05:27,556815.0,0.0,0.0
10:05:27,557869.0,0.0,0.0
10:05:27,557077.0,0.0,0.0
10:05:27,557498.0,0.0,0.0
10:05:27,557876.0,0.0,0.0
10:05:27,556930.0,0.0,0.0
10:05:27,557969.0,0.0,0.0
10:05:27,557074.0,0.0,0.0
10:05:27,557473.0,0.0,0.0
10:05:27,557947.0,0.0,0.0
10:05:27,557108.0,0.0,0.0
10:05:27,558091.0,0.0,0.0
10:05:27,557254.0,0.0,0.0
10:05:27,557554.0,0.0,0.0
10:05:27,557994.0,0.0,0.0
10:05:27,557203.0,0.0,0.0
10:05:27,558276.0,0.0,0.0
10:05:27,557344.0,0.0,0.0
10:05:27,557567.0,0.0,0.0
10:05:27,557974.0,0.0,0.0
10:05:27,557235.0,0.0,0.0
10:05:27,558213.0,0.0,0.0
10:05:27,557506.0,0.0,0.0
10:05:27,557622.0,0.0,0.0
10:05:27,557864.0,0.0,0.0
10:05:27,557146.0,0.0,0.0
10:05:27,558010.0,0.0,0.0
10:05:27,557358.0,0.0,0.0
10:05:27,557522.0,0.0,0.0
10:05:27,557703.0,0.0,0.0
10:05:27,557023.0,0.0,0.0
10:05:27,557884.0,0.0,0.0
10:05:27,557356.0,0.0,0.0
10:05:27,557606.0,0.0,0.0
10:05:27,557699.0,0.0,0.0
10:05:27,557034.0,0.0,0.0
10:05:27,557746.0,0.0,0.0
10:05:28,557188.0,0.0,0.0
10:05:28,557494.0,0.0,0.0
10:05:28,557631.0,0.0,0.0
10:05:28,557022.0,0.0,0.0
10:05:28,557821.0,0.0,0.0
10:05:28,557226.0,0.0,0.0
10:05:28,557547.0,0.0,0.0
10:05:28,557705.0,0.0,0.0
10:05:28,556969.0,0.0,0.0
10:05:28,557601.0,0.0,0.0
10:05:28,556981.0,0.0,0.0
10:05:28,557248.0,0.0,0.0
10:05:28,557509.0,0.0,0.0
10:05:28,556929.0,0.0,0.0
10:05:28,557621.0,0.0,0.0
10:05:28,557004.0,0.0,0.0
10:05:28,557210.0,0.0,0.0
10:05:28,557534.0,0.0,0.0
10:05:28,557044.0,0.0,0.0
10:05:28,557849.0,0.0,0.0
10:05:28,557121.0,0.0,0.0
10:05:28,557150.0,0.0,0.0
10:05:28,557405.0,0.0,0.0
10:05:28,556891.0,0.0,0.0
10:05:28,557755.0,0.0,0.0
10:05:28,557178.0,0.0,0.0
10:05:28,557214.0,0.0,0.0
10:05:28,557353.0,0.0,0.0
10:05:28,556757.0,0.0,0.0
10:05:28,557532.0,0.0,0.0
10:05:28,557003.0,0.0,0.0
10:05:28,557239.0,0.0,0.0
10:05:28,557349.0,0.0,0.0
10:05:28,556618.0,0.0,0.0
10:05:28,557470.0,0.0,0.0
10:05:28,556925.0,0.0,0.0
10:05:28,557305.0,0.0,0.0
10:05:28,557583.0,0.0,0.0
10:05:28,556760.0,0.0,0.0
10:05:28,557621.0,0.0,0.0
10:05:28,557083.0,0.0,0.0
10:05:28,557484.0,0.0,0.0
10:05:28,557854.0,0.0,0.0
10:05:28,556937.0,0.0,0.0
10:05:28,557855.0,0.0,0.0
10:05:28,557047.0,0.0,0.0
10:05:28,557296.0,0.0,0.0
10:05:28,557694.0,0.0,0.0
10:05:28,556742.0,0.0,0.0
10:05:28,557492.0,0.0,0.0
10:05:28,556732.0,0.0,0.0
10:05:28,556947.0,0.0,0.0
10:05:28,557285.0,0.0,0.0
10:05:28,556612.0,0.0,0.0
10:05:28,557263.0,0.0,0.0
10:05:28,556559.0,0.0,0.0
10:05:28,556753.0,0.0,0.0
10:05:28,557107.0,0.0,0.0
10:05:28,556564.0,0.0,0.0
10:05:28,557226.0,0.0,0.0
10:05:28,556592.0,0.0,0.0
10:05:28,556623.0,0.0,0.0
10:05:28,556845.0,0.0,0.0
10:05:28,556380.0,0.0,0.0
10:05:28,557058.0,0.0,0.0
10:05:28,556646.0,0.0,0.0
10:05:28,556698.0,0.0,0.0
10:05:28,556706.0,0.0,0.0
10:05:28,556022.0,0.0,0.0
10:05:28,556589.0,0.0,0.0
10:05:28,556009.0,0.0,0.0
10:05:28,556021.0,0.0,0.0
10:05:28,555961.0,0.0,0.0
10:05:28,555429.0,0.0,0.0
10:05:28,556354.0,0.0,0.0
10:05:28,555979.0,0.0,0.0
10:05:28,556064.0,0.0,0.0
10:05:28,556222.0,0.0,0.0
10:05:28,555575.0,0.0,0.0
10:05:28,556200.0,0.0,0.0
10:05:28,555833.0,0.0,0.0
10:05:28,556177.0,0.0,0.0
10:05:28,556411.0,0.0,0.0
10:05:28,555678.0,0.0,0.0
10:05:28,556044.0,0.0,0.0
10:05:28,555381.0,0.0,0.0
10:05:28,555629.0,0.0,0.0
10:05:28,555942.0,0.0,0.0
10:05:28,555370.0,0.0,0.0
10:05:28,555886.0,0.0,0.0
10:05:28,555360.0,0.0,0.0
10:05:28,555644.0,0.0,0.0
10:05:28,555928.0,0.0,0.0
10:05:28,555380.0,0.0,0.0
10:05:28,555989.0,0.0,0.0
10:05:28,555363.0,0.0,0.0
10:05:28,555504.0,0.0,0.0
10:05:28,555726.0,0.0,0.0
10:05:28,555228.0,0.0,0.0
10:05:28,555986.0,0.0,0.0
10:05:28,555489.0,0.0,0.0
10:05:28,555586.0,0.0,0.0
10:05:28,555836.0,0.0,0.0
10:05:28,555352.0,0.0,0.0
10:05:28,556089.0,0.0,0.0
10:05:28,555648.0,0.0,0.0
10:05:28,555810.0,0.0,0.0
10:05:28,555899.0,0.0,0.0
10:05:28,555347.0,0.0,0.0
10:05:28,556029.0,0.0,0.0
10:05:28,555514.0,0.0,0.0
10:05:28,555679.0,0.0,0.0
10:05:28,555791.0,0.0,0.0
10:05:28,555221.0,0.0,0.0
10:05:28,555863.0,0.0,0.0
10:05:28,555472.0,0.0,0.0
10:05:28,555689.0,0.0,0.0
10:05:28,555778.0,0.0,0.0
10:05:28,555153.0,0.0,0.0
10:05:28,555699.0,0.0,0.0
10:05:28,555256.0,0.0,0.0
10:05:28,555543.0,0.0,0.0
10:05:28,555778.0,0.0,0.0
10:05:28,555219.0,0.0,0.0
10:05:28,555698.0,0.0,0.0
10:05:29,555251.0,0.0,0.0
10:05:29,555448.0,0.0,0.0
10:05:29,555761.0,0.0,0.0
10:05:29,555361.0,0.0,0.0
10:05:29,555878.0,0.0,0.0
10:05:29,555459.0,0.0,0.0
10:05:29,555626.0,0.0,0.0
10:05:29,555974.0,0.0,0.0
10:05:29,555609.0,0.0,0.0
10:05:29,556262.0,0.0,0.0
10:05:29,555809.0,0.0,0.0
10:05:29,555820.0,0.0,0.0
10:05:29,556033.0,0.0,0.0
10:05:29,555641.0,0.0,0.0
10:05:29,556333.0,0.0,0.0
10:05:29,555911.0,0.0,0.0
10:05:29,555916.0,0.0,0.0
10:05:29,556196.0,0.0,0.0
10:05:29,555771.0,0.0,0.0
10:05:29,556440.0,0.0,0.0
10:05:29,556057.0,0.0,0.0
10:05:29,556133.0,0.0,0.0
10:05:29,556219.0,0.0,0.0
10:05:29,555670.0,0.0,0.0
10:05:29,556238.0,0.0,0.0
10:05:29,555828.0,0.0,0.0
10:05:29,555948.0,0.0,0.0
10:05:29,556070.0,0.0,0.0
10:05:29,555433.0,0.0,0.0
10:05:29,556016.0,0.0,0.0
10:05:29,555823.0,0.0,0.0
10:05:29,556108.0,0.0,0.0
10:05:29,556321.0,0.0,0.0
10:05:29,555668.0,0.0,0.0
10:05:29,556104.0,0.0,0.0
10:05:29,555532.0,0.0,0.0
10:05:29,555719.0,0.0,0.0
10:05:29,556042.0,0.0,0.0
10:05:29,555503.0,0.0,0.0
10:05:29,556065.0,0.0,0.0
10:05:29,555619.0,0.0,0.0
10:05:29,555766.0,0.0,0.0
10:05:29,556191.0,0.0,0.0
10:05:29,555731.0,0.0,0.0
10:05:29,556359.0,0.0,0.0
10:05:29,555818.0,0.0,0.0
10:05:29,555858.0,0.0,0.0
10:05:29,556143.0,0.0,0.0
10:05:29,555628.0,0.0,0.0
10:05:29,556318.0,0.0,0.0
10:05:29,555821.0,0.0,0.0
10:05:29,555824.0,0.0,0.0
10:05:29,556064.0,0.0,0.0
10:05:29,555555.0,0.0,0.0
10:05:29,556249.0,0.0,0.0
10:05:29,555818.0,0.0,0.0
10:05:29,555858.0,0.0,0.0
10:05:29,556048.0,0.0,0.0
10:05:29,555503.0,0.0,0.0
10:05:29,556221.0,0.0,0.0
10:05:29,555789.0,0.0,0.0
10:05:29,555876.0,0.0,0.0
10:05:29,556033.0,0.0,0.0
10:05:29,555390.0,0.0,0.0
10:05:29,556023.0,0.0,0.0
10:05:29,555605.0,0.0,0.0
10:05:29,555753.0,0.0,0.0
10:05:29,555981.0,0.0,0.0
10:05:29,555285.0,0.0,0.0
10:05:29,555928.0,0.0,0.0
10:05:29,555461.0,0.0,0.0
10:05:29,555655.0,0.0,0.0
10:05:29,555991.0,0.0,0.0
10:05:29,555236.0,0.0,0.0
10:05:29,555915.0,0.0,0.0
10:05:29,555386.0,0.0,0.0
10:05:29,555605.0,0.0,0.0
10:05:29,556015.0,0.0,0.0
10:05:29,555306.0,0.0,0.0
10:05:29,555922.0,0.0,0.0
10:05:29,555394.0,0.0,0.0
10:05:29,555479.0,0.0,0.0
10:05:29,555912.0,0.0,0.0
10:05:29,555206.0,0.0,0.0
10:05:29,556076.0,0.0,0.0
10:05:29,555396.0,0.0,0.0
10:05:29,555373.0,0.0,0.0
10:05:29,555857.0,0.0,0.0
10:05:29,555049.0,0.0,0.0
10:05:29,556039.0,0.0,0.0
10:05:29,555349.0,0.0,0.0
10:05:29,555270.0,0.0,0.0
10:05:29,555764.0,0.0,0.0
10:05:29,554781.0,0.0,0.0
10:05:29,555929.0,0.0,0.0
10:05:29,555210.0,0.0,0.0
10:05:29,555101.0,0.0,0.0
10:05:29,555626.0,0.0,0.0
10:05:29,554610.0,0.0,0.0
10:05:29,555733.0,0.0,0.0
10:05:29,555004.0,0.0,0.0
10:05:29,555011.0,0.0,0.0
10:05:29,555534.0,0.0,0.0
10:05:29,554439.0,0.0,0.0
10:05:29,555434.0,0.0,0.0
10:05:29,554814.0,0.0,0.0
10:05:29,554936.0,0.0,0.0
10:05:29,555568.0,0.0,0.0
10:05:29,554442.0,0.0,0.0
10:05:29,555491.0,0.0,0.0
10:05:29,554918.0,0.0,0.0
10:05:29,555232.0,0.0,0.0
10:05:29,556178.0,0.0,0.0
10:05:29,555018.0,0.0,0.0
10:05:29,555934.0,0.0,0.0
10:05:29,555166.0,0.0,0.0
10:05:29,555013.0,0.0,0.0
10:05:29,555646.0,0.0,0.0
10:05:29,554549.0,0.0,0.0
10:05:29,555546.0,0.0,0.0
10:05:29,554909.0,0.0,0.0
10:05:29,554888.0,0.0,0.0
10:05:29,555686.0,0.0,0.0
10:05:29,554597.0,0.0,0.0
10:05:29,555569.0,0.0,0.0
10:05:30,554893.0,0.0,0.0
10:05:30,554758.0,0.0,0.0
10:05:30,555444.0,0.0,0.0
10:05:30,554463.0,0.0,0.0
10:05:30,555535.0,0.0,0.0
10:05:30,554923.0,0.0,0.0
10:05:30,554821.0,0.0,0.0
10:05:30,555491.0,0.0,0.0
10:05:30,554439.0,0.0,0.0
10:05:30,555580.0,0.0,0.0
10:05:30,555071.0,0.0,0.0
10:05:30,554941.0,0.0,0.0
10:05:30,555506.0,0.0,0.0
10:05:30,554528.0,0.0,0.0
10:05:30,555587.0,0.0,0.0
10:05:30,554954.0,0.0,0.0
10:05:30,554943.0,0.0,0.0
10:05:30,555528.0,0.0,0.0
10:05:30,554469.0,0.0,0.0
10:05:30,555391.0,0.0,0.0
10:05:30,554951.0,0.0,0.0
10:05:30,555009.0,0.0,0.0
10:05:30,555558.0,0.0,0.0
10:05:30,554684.0,0.0,0.0
10:05:30,555354.0,0.0,0.0
10:05:30,554928.0,0.0,0.0
10:05:30,555056.0,0.0,0.0
10:05:30,555486.0,0.0,0.0
10:05:30,554829.0,0.0,0.0
10:05:30,555349.0,0.0,0.0
10:05:30,554806.0,0.0,0.0
10:05:30,554838.0,0.0,0.0
10:05:30,555317.0,0.0,0.0
10:05:30,554623.0,0.0,0.0
10:05:30,555317.0,0.0,0.0
10:05:30,554701.0,0.0,0.0
10:05:30,554653.0,0.0,0.0
10:05:30,555293.0,0.0,0.0
10:05:30,554431.0,0.0,0.0
10:05:30,555454.0,0.0,0.0
10:05:30,554818.0,0.0,0.0
10:05:30,554688.0,0.0,0.0
10:05:30,555378.0,0.0,0.0
10:05:30,554461.0,0.0,0.0
10:05:30,555546.0,0.0,0.0
10:05:30,554959.0,0.0,0.0
10:05:30,554804.0,0.0,0.0
10:05:30,555408.0,0.0,0.0
10:05:30,554411.0,0.0,0.0
10:05:30,555546.0,0.0,0.0
10:05:30,555002.0,0.0,0.0
10:05:30,554899.0,0.0,0.0
10:05:30,555447.0,0.0,0.0
10:05:30,554353.0,0.0,0.0
10:05:30,555284.0,0.0,0.0
10:05:30,554733.0,0.0,0.0
10:05:30,554689.0,0.0,0.0
10:05:30,555213.0,0.0,0.0
10:05:30,554247.0,0.0,0.0
10:05:30,555051.0,0.0,0.0
10:05:30,554660.0,0.0,0.0
10:05:30,554749.0,0.0,0.0
10:05:30,555136.0,0.0,0.0
10:05:30,554366.0,0.0,0.0
10:05:30,554893.0,0.0,0.0
10:05:30,554469.0,0.0,0.0
10:05:30,554530.0,0.0,0.0
10:05:30,554823.0,0.0,0.0
10:05:30,554268.0,0.0,0.0
10:05:30,554789.0,0.0,0.0
10:05:30,554516.0,0.0,0.0
10:05:30,554540.0,0.0,0.0
10:05:30,554908.0,0.0,0.0
10:05:30,554221.0,0.0,0.0
10:05:30,554798.0,0.0,0.0
10:05:30,554193.0,0.0,0.0
10:05:30,554192.0,0.0,0.0
10:05:30,554826.0,0.0,0.0
10:05:30,554240.0,0.0,0.0
10:05:30,555206.0,0.0,0.0
10:05:30,554833.0,0.0,0.0
10:05:30,554684.0,0.0,0.0
10:05:30,555096.0,0.0,0.0
10:05:30,554298.0,0.0,0.0
10:05:30,555016.0,0.0,0.0
10:05:30,554476.0,0.0,0.0
10:05:30,554328.0,0.0,0.0
10:05:30,554704.0,0.0,0.0
10:05:30,553734.0,0.0,0.0
10:05:30,554528.0,0.0,0.0
10:05:30,554036.0,0.0,0.0
10:05:30,553984.0,0.0,0.0
10:05:30,554483.0,0.0,0.0
10:05:30,553566.0,0.0,0.0
10:05:30,554305.0,0.0,0.0
10:05:30,554053.0,0.0,0.0
10:05:30,554098.0,0.0,0.0
10:05:30,554628.0,0.0,0.0
10:05:30,553958.0,0.0,0.0
10:05:30,554703.0,0.0,0.0
10:05:30,554193.0,0.0,0.0
10:05:30,554253.0,0.0,0.0
10:05:30,554618.0,0.0,0.0
10:05:30,553615.0,0.0,0.0
10:05:30,554245.0,0.0,0.0
10:05:30,553893.0,0.0,0.0
10:05:30,553954.0,0.0,0.0
10:05:30,554547.0,0.0,0.0
10:05:30,553648.0,0.0,0.0
10:05:30,554250.0,0.0,0.0
10:05:30,553881.0,0.0,0.0
10:05:30,553700.0,0.0,0.0
10:05:30,554238.0,0.0,0.0
10:05:30,553629.0,0.0,0.0
10:05:30,554419.0,0.0,0.0
10:05:30,554019.0,0.0,0.0
10:05:30,553934.0,0.0,0.0
10:05:30,554230.0,0.0,0.0
10:05:30,553476.0,0.0,0.0
10:05:30,554333.0,0.0,0.0
10:05:30,554129.0,0.0,0.0
10:05:30,554112.0,0.0,0.0
10:05:30,554487.0,0.0,0.0
10:05:30,554052.0,0.0,0.0
10:05:30,554678.0,0.0,0.0
10:05:31,554236.0,0.0,0.0
10:05:31,554243.0,0.0,0.0
10:05:31,554568.0,0.0,0.0
10:05:31,554020.0,0.0,0.0
10:05:31,554756.0,0.0,0.0
10:05:31,554419.0,0.0,0.0
10:05:31,554396.0,0.0,0.0
10:05:31,554867.0,0.0,0.0
10:05:31,554168.0,0.0,0.0
10:05:31,554798.0,0.0,0.0
10:05:31,554652.0,0.0,0.0
10:05:31,554751.0,0.0,0.0
10:05:31,555214.0,0.0,0.0
10:05:31,554547.0,0.0,0.0
10:05:31,555145.0,0.0,0.0
10:05:31,554796.0,0.0,0.0
10:05:31,554823.0,0.0,0.0
10:05:31,555362.0,0.0,0.0
10:05:31,554780.0,0.0,0.0
10:05:31,555252.0,0.0,0.0
10:05:31,554812.0,0.0,0.0
10:05:31,554774.0,0.0,0.0
10:05:31,555247.0,0.0,0.0
10:05:31,554744.0,0.0,0.0
10:05:31,555286.0,0.0,0.0
10:05:31,554734.0,0.0,0.0
10:05:31,554589.0,0.0,0.0
10:05:31,555003.0,0.0,0.0
10:05:31,554585.0,0.0,0.0
10:05:31,555413.0,0.0,0.0
10:05:31,555054.0,0.0,0.0
10:05:31,554909.0,0.0,0.0
10:05:31,555114.0,0.0,0.0
10:05:31,554566.0,0.0,0.0
10:05:31,555273.0,0.0,0.0
10:05:31,555043.0,0.0,0.0
10:05:31,555013.0,0.0,0.0
10:05:31,555373.0,0.0,0.0
10:05:31,554841.0,0.0,0.0
10:05:31,555446.0,0.0,0.0
10:05:31,555117.0,0.0,0.0
10:05:31,555120.0,0.0,0.0
10:05:31,555384.0,0.0,0.0
10:05:31,554821.0,0.0,0.0
10:05:31,555441.0,0.0,0.0
10:05:31,555211.0,0.0,0.0
10:05:31,555294.0,0.0,0.0
10:05:31,555641.0,0.0,0.0
10:05:31,554952.0,0.0,0.0
10:05:31,555497.0,0.0,0.0
10:05:31,555197.0,0.0,0.0
10:05:31,555189.0,0.0,0.0
10:05:31,555683.0,0.0,0.0
10:05:31,555109.0,0.0,0.0
10:05:31,555572.0,0.0,0.0
10:05:31,555308.0,0.0,0.0
10:05:31,555353.0,0.0,0.0
10:05:31,555881.0,0.0,0.0
10:05:31,555313.0,0.0,0.0
10:05:31,555753.0,0.0,0.0
10:05:31,555429.0,0.0,0.0
10:05:31,555333.0,0.0,0.0
10:05:31,555796.0,0.0,0.0
10:05:31,555260.0,0.0,0.0
10:05:31,555766.0,0.0,0.0
10:05:31,555433.0,0.0,0.0
10:05:31,555358.0,0.0,0.0
10:05:31,555774.0,0.0,0.0
10:05:31,555277.0,0.0,0.0
10:05:31,555899.0,0.0,0.0
10:05:31,555581.0,0.0,0.0
10:05:31,555470.0,0.0,0.0
10:05:31,555813.0,0.0,0.0
10:05:31,555273.0,0.0,0.0
10:05:31,555981.0,0.0,0.0
10:05:31,555659.0,0.0,0.0
10:05:31,555532.0,0.0,0.0
10:05:31,555843.0,0.0,0.0
10:05:31,555233.0,0.0,0.0
10:05:31,555879.0,0.0,0.0
10:05:31,555601.0,0.0,0.0
10:05:31,555656.0,0.0,0.0
10:05:31,556038.0,0.0,0.0
10:05:31,555334.0,0.0,0.0
10:05:31,555954.0,0.0,0.0
10:05:31,555706.0,0.0,0.0
10:05:31,555738.0,0.0,0.0
10:05:31,556182.0,0.0,0.0
10:05:31,555447.0,0.0,0.0
10:05:31,556008.0,0.0,0.0
10:05:31,555723.0,0.0,0.0
10:05:31,555700.0,0.0,0.0
10:05:31,556248.0,0.0,0.0
10:05:31,555640.0,0.0,0.0
10:05:31,556181.0,0.0,0.0
10:05:31,555868.0,0.0,0.0
10:05:31,555879.0,0.0,0.0
10:05:31,556484.0,0.0,0.0
10:05:31,555921.0,0.0,0.0
10:05:31,556554.0,0.0,0.0
10:05:31,556203.0,0.0,0.0
10:05:31,556138.0,0.0,0.0
10:05:31,556699.0,0.0,0.0
10:05:31,556067.0,0.0,0.0
10:05:31,556851.0,0.0,0.0
10:05:31,556445.0,0.0,0.0
10:05:31,556103.0,0.0,0.0
10:05:31,556616.0,0.0,0.0
10:05:31,555926.0,0.0,0.0
10:05:31,556638.0,0.0,0.0
10:05:31,556262.0,0.0,0.0
10:05:31,556112.0,0.0,0.0
10:05:31,556714.0,0.0,0.0
10:05:31,555823.0,0.0,0.0
10:05:31,556755.0,0.0,0.0
10:05:31,556460.0,0.0,0.0
10:05:31,556296.0,0.0,0.0
10:05:31,556916.0,0.0,0.0
10:05:31,555906.0,0.0,0.0
10:05:31,556833.0,0.0,0.0
10:05:31,556563.0,0.0,0.0
10:05:31,556425.0,0.0,0.0
10:05:31,557086.0,0.0,0.0
10:05:31,556050.0,0.0,0.0
10:05:31,556979.0,0.0,0.0
10:05:32,556746.0,0.0,0.0
10:05:32,556666.0,0.0,0.0
10:05:32,557442.0,0.0,0.0
10:05:32,556299.0,0.0,0.0
10:05:32,557015.0,0.0,0.0
10:05:32,556648.0,0.0,0.0
10:05:32,556432.0,0.0,0.0
10:05:32,557299.0,0.0,0.0
10:05:32,556353.0,0.0,0.0
10:05:32,557178.0,0.0,0.0
10:05:32,556845.0,0.0,0.0
10:05:32,556691.0,0.0,0.0
10:05:32,557636.0,0.0,0.0
10:05:32,556823.0,0.0,0.0
10:05:32,557701.0,0.0,0.0
10:05:32,557317.0,0.0,0.0
10:05:32,557111.0,0.0,0.0
10:05:32,557978.0,0.0,0.0
10:05:32,556991.0,0.0,0.0
10:05:32,557849.0,0.0,0.0
10:05:32,557344.0,0.0,0.0
10:05:32,556979.0,0.0,0.0
10:05:32,557745.0,0.0,0.0
10:05:32,556745.0,0.0,0.0
10:05:32,557656.0,0.0,0.0
10:05:32,557286.0,0.0,0.0
10:05:32,556892.0,0.0,0.0
10:05:32,557583.0,0.0,0.0
10:05:32,556570.0,0.0,0.0
10:05:32,557481.0,0.0,0.0
10:05:32,557168.0,0.0,0.0
10:05:32,556868.0,0.0,0.0
10:05:32,557463.0,0.0,0.0
10:05:32,556484.0,0.0,0.0
10:05:32,557391.0,0.0,0.0
10:05:32,557123.0,0.0,0.0
10:05:32,556916.0,0.0,0.0
10:05:32,557622.0,0.0,0.0
10:05:32,556503.0,0.0,0.0
10:05:32,557321.0,0.0,0.0
10:05:32,556979.0,0.0,0.0
10:05:32,556781.0,0.0,0.0
10:05:32,557646.0,0.0,0.0
10:05:32,556634.0,0.0,0.0
10:05:32,557431.0,0.0,0.0
10:05:32,557173.0,0.0,0.0
10:05:32,556952.0,0.0,0.0
10:05:32,557876.0,0.0,0.0
10:05:32,556882.0,0.0,0.0
10:05:32,557546.0,0.0,0.0
10:05:32,557184.0,0.0,0.0
10:05:32,556862.0,0.0,0.0
10:05:32,557710.0,0.0,0.0
10:05:32,556726.0,0.0,0.0
10:05:32,557643.0,0.0,0.0
10:05:32,557368.0,0.0,0.0
10:05:32,556993.0,0.0,0.0
10:05:32,557824.0,0.0,0.0
10:05:32,556784.0,0.0,0.0
10:05:32,557574.0,0.0,0.0
10:05:32,557213.0,0.0,0.0
10:05:32,556824.0,0.0,0.0
10:05:32,557610.0,0.0,0.0
10:05:32,556626.0,0.0,0.0
10:05:32,557538.0,0.0,0.0
10:05:32,557194.0,0.0,0.0
10:05:32,556829.0,0.0,0.0
10:05:32,557544.0,0.0,0.0
10:05:32,556523.0,0.0,0.0
10:05:32,557412.0,0.0,0.0
10:05:32,557119.0,0.0,0.0
10:05:32,556769.0,0.0,0.0
10:05:32,557491.0,0.0,0.0
10:05:32,556398.0,0.0,0.0
10:05:32,557267.0,0.0,0.0
10:05:32,556998.0,0.0,0.0
10:05:32,556653.0,0.0,0.0
10:05:32,557508.0,0.0,0.0
10:05:32,556296.0,0.0,0.0
10:05:32,557000.0,0.0,0.0
10:05:32,556706.0,0.0,0.0
10:05:32,556491.0,0.0,0.0
10:05:32,557508.0,0.0,0.0
10:05:32,556416.0,0.0,0.0
10:05:32,557031.0,0.0,0.0
10:05:32,556721.0,0.0,0.0
10:05:32,556284.0,0.0,0.0
10:05:32,557154.0,0.0,0.0
10:05:32,556171.0,0.0,0.0
10:05:32,557027.0,0.0,0.0
10:05:32,556726.0,0.0,0.0
10:05:32,556326.0,0.0,0.0
10:05:32,557152.0,0.0,0.0
10:05:32,556065.0,0.0,0.0
10:05:32,556798.0,0.0,0.0
10:05:32,556410.0,0.0,0.0
10:05:32,556063.0,0.0,0.0
10:05:32,556843.0,0.0,0.0
10:05:32,555861.0,0.0,0.0
10:05:32,556695.0,0.0,0.0
10:05:32,556329.0,0.0,0.0
10:05:32,555841.0,0.0,0.0
10:05:32,556623.0,0.0,0.0
10:05:32,555601.0,0.0,0.0
10:05:32,556564.0,0.0,0.0
10:05:32,556329.0,0.0,0.0
10:05:32,555989.0,0.0,0.0
10:05:32,556653.0,0.0,0.0
10:05:32,555710.0,0.0,0.0
10:05:32,556521.0,0.0,0.0
10:05:32,556370.0,0.0,0.0
10:05:32,556087.0,0.0,0.0
10:05:32,556736.0,0.0,0.0
10:05:32,555879.0,0.0,0.0
10:05:32,556540.0,0.0,0.0
10:05:32,556398.0,0.0,0.0
10:05:32,556204.0,0.0,0.0
10:05:32,556831.0,0.0,0.0
10:05:32,555936.0,0.0,0.0
10:05:32,556384.0,0.0,0.0
10:05:32,556147.0,0.0,0.0
10:05:32,555901.0,0.0,0.0
10:05:32,556538.0,0.0,0.0
10:05:32,555956.0,0.0,0.0
10:05:32,556411.0,0.0,0.0
10:05:33,556149.0,0.0,0.0
10:05:33,555940.0,0.0,0.0
10:05:33,556391.0,0.0,0.0
10:05:33,555883.0,0.0,0.0
10:05:33,556596.0,0.0,0.0
10:05:33,556341.0,0.0,0.0
10:05:33,556079.0,0.0,0.0
10:05:33,556521.0,0.0,0.0
10:05:33,555898.0,0.0,0.0
10:05:33,556414.0,0.0,0.0
10:05:33,556183.0,0.0,0.0
10:05:33,556003.0,0.0,0.0
10:05:33,556410.0,0.0,0.0
10:05:33,555884.0,0.0,0.0
10:05:33,556453.0,0.0,0.0
10:05:33,556232.0,0.0,0.0
10:05:33,556051.0,0.0,0.0
10:05:33,556443.0,0.0,0.0
10:05:33,555898.0,0.0,0.0
10:05:33,556481.0,0.0,0.0
10:05:33,556303.0,0.0,0.0
10:05:33,556149.0,0.0,0.0
10:05:33,556518.0,0.0,0.0
10:05:33,555855.0,0.0,0.0
10:05:33,556365.0,0.0,0.0
10:05:33,556236.0,0.0,0.0
10:05:33,556162.0,0.0,0.0
10:05:33,556636.0,0.0,0.0
10:05:33,555925.0,0.0,0.0
10:05:33,556376.0,0.0,0.0
10:05:33,556197.0,0.0,0.0
10:05:33,556133.0,0.0,0.0
10:05:33,556703.0,0.0,0.0
10:05:33,555953.0,0.0,0.0
10:05:33,556274.0,0.0,0.0
10:05:33,556063.0,0.0,0.0
10:05:33,555952.0,0.0,0.0
10:05:33,556544.0,0.0,0.0
10:05:33,555979.0,0.0,0.0
10:05:33,556424.0,0.0,0.0
10:05:33,556090.0,0.0,0.0
10:05:33,555823.0,0.0,0.0
10:05:33,556469.0,0.0,0.0
10:05:33,555636.0,0.0,0.0
10:05:33,556271.0,0.0,0.0
10:05:33,555963.0,0.0,0.0
10:05:33,555584.0,0.0,0.0
10:05:33,556508.0,0.0,0.0
10:05:33,555657.0,0.0,0.0
10:05:33,556430.0,0.0,0.0
10:05:33,556241.0,0.0,0.0
10:05:33,555812.0,0.0,0.0
10:05:33,556699.0,0.0,0.0
10:05:33,555646.0,0.0,0.0
10:05:33,556479.0,0.0,0.0
10:05:33,556331.0,0.0,0.0
10:05:33,555748.0,0.0,0.0
10:05:33,556644.0,0.0,0.0
10:05:33,555607.0,0.0,0.0
10:05:33,556435.0,0.0,0.0
10:05:33,556313.0,0.0,0.0
10:05:33,555819.0,0.0,0.0
10:05:33,556729.0,0.0,0.0
10:05:33,555643.0,0.0,0.0
10:05:33,556453.0,0.0,0.0
10:05:33,556330.0,0.0,0.0
10:05:33,555883.0,0.0,0.0
10:05:33,556848.0,0.0,0.0
10:05:33,555671.0,0.0,0.0
10:05:33,556381.0,0.0,0.0
10:05:33,556251.0,0.0,0.0
10:05:33,555792.0,0.0,0.0
10:05:33,556790.0,0.0,0.0
10:05:33,555628.0,0.0,0.0
10:05:33,556211.0,0.0,0.0
10:05:33,555985.0,0.0,0.0
10:05:33,555544.0,0.0,0.0
10:05:33,556624.0,0.0,0.0
10:05:33,555738.0,0.0,0.0
10:05:33,556411.0,0.0,0.0
10:05:33,556135.0,0.0,0.0
10:05:33,555544.0,0.0,0.0
10:05:33,556366.0,0.0,0.0
10:05:33,555393.0,0.0,0.0
10:05:33,556087.0,0.0,0.0
10:05:33,555888.0,0.0,0.0
10:05:33,555456.0,0.0,0.0
10:05:33,556269.0,0.0,0.0
10:05:33,555503.0,0.0,0.0
10:05:33,556230.0,0.0,0.0
10:05:33,556043.0,0.0,0.0
10:05:33,555649.0,0.0,0.0
10:05:33,556368.0,0.0,0.0
10:05:33,555601.0,0.0,0.0
10:05:33,556237.0,0.0,0.0
10:05:33,556023.0,0.0,0.0
10:05:33,555662.0,0.0,0.0
10:05:33,556224.0,0.0,0.0
10:05:33,555457.0,0.0,0.0
10:05:33,556056.0,0.0,0.0
10:05:33,556013.0,0.0,0.0
10:05:33,555714.0,0.0,0.0
10:05:33,556271.0,0.0,0.0
10:05:33,555464.0,0.0,0.0
10:05:33,555976.0,0.0,0.0
10:05:33,555983.0,0.0,0.0
10:05:33,555771.0,0.0,0.0
10:05:33,556327.0,0.0,0.0
10:05:33,555604.0,0.0,0.0
10:05:33,556074.0,0.0,0.0
10:05:33,556013.0,0.0,0.0
10:05:33,555873.0,0.0,0.0
10:05:33,556492.0,0.0,0.0
10:05:33,555850.0,0.0,0.0
10:05:33,556223.0,0.0,0.0
10:05:33,556033.0,0.0,0.0
10:05:33,555897.0,0.0,0.0
10:05:33,556456.0,0.0,0.0
10:05:33,555869.0,0.0,0.0
10:05:33,556294.0,0.0,0.0
10:05:33,556145.0,0.0,0.0
10:05:33,555928.0,0.0,0.0
10:05:33,556508.0,0.0,0.0
10:05:33,555924.0,0.0,0.0
10:05:33,556374.0,0.0,0.0
10:05:34,556107.0,0.0,0.0
10:05:34,555873.0,0.0,0.0
10:05:34,556397.0,0.0,0.0
10:05:34,555804.0,0.0,0.0
10:05:34,556329.0,0.0,0.0
10:05:34,556078.0,0.0,0.0
10:05:34,555757.0,0.0,0.0
10:05:34,556209.0,0.0,0.0
10:05:34,555585.0,0.0,0.0
10:05:34,556092.0,0.0,0.0
10:05:34,555879.0,0.0,0.0
10:05:34,555588.0,0.0,0.0
10:05:34,556053.0,0.0,0.0
10:05:34,555414.0,0.0,0.0
10:05:34,555908.0,0.0,0.0
10:05:34,555774.0,0.0,0.0
10:05:34,555582.0,0.0,0.0
10:05:34,555985.0,0.0,0.0
10:05:34,555262.0,0.0,0.0
10:05:34,555726.0,0.0,0.0
10:05:34,555623.0,0.0,0.0
10:05:34,555391.0,0.0,0.0
10:05:34,555913.0,0.0,0.0
10:05:34,555140.0,0.0,0.0
10:05:34,555531.0,0.0,0.0
10:05:34,555355.0,0.0,0.0
10:05:34,555071.0,0.0,0.0
10:05:34,555820.0,0.0,0.0
10:05:34,555160.0,0.0,0.0
10:05:34,555533.0,0.0,0.0
10:05:34,555342.0,0.0,0.0
10:05:34,554884.0,0.0,0.0
10:05:34,555461.0,0.0,0.0
10:05:34,554698.0,0.0,0.0
10:05:34,555130.0,0.0,0.0
10:05:34,554915.0,0.0,0.0
10:05:34,554546.0,0.0,0.0
10:05:34,555308.0,0.0,0.0
10:05:34,554516.0,0.0,0.0
10:05:34,555024.0,0.0,0.0
10:05:34,554759.0,0.0,0.0
10:05:34,554188.0,0.0,0.0
10:05:34,554979.0,0.0,0.0
10:05:34,554118.0,0.0,0.0
10:05:34,554771.0,0.0,0.0
10:05:34,554528.0,0.0,0.0
10:05:34,553764.0,0.0,0.0
10:05:34,554789.0,0.0,0.0
10:05:34,553841.0,0.0,0.0
10:05:34,554668.0,0.0,0.0
10:05:34,554744.0,0.0,0.0
10:05:34,554058.0,0.0,0.0
10:05:34,554921.0,0.0,0.0
10:05:34,553836.0,0.0,0.0
10:05:34,554549.0,0.0,0.0
10:05:34,554472.0,0.0,0.0
10:05:34,553741.0,0.0,0.0
10:05:34,554703.0,0.0,0.0
10:05:34,553679.0,0.0,0.0
10:05:34,554343.0,0.0,0.0
10:05:34,554399.0,0.0,0.0
10:05:34,553862.0,0.0,0.0
10:05:34,554845.0,0.0,0.0
10:05:34,553789.0,0.0,0.0
10:05:34,554345.0,0.0,0.0
10:05:34,554428.0,0.0,0.0
10:05:34,553988.0,0.0,0.0
10:05:34,554818.0,0.0,0.0
10:05:34,553847.0,0.0,0.0
10:05:34,554301.0,0.0,0.0
10:05:34,554229.0,0.0,0.0
10:05:34,553913.0,0.0,0.0
10:05:34,554741.0,0.0,0.0
10:05:34,553966.0,0.0,0.0
10:05:34,554299.0,0.0,0.0
10:05:34,554129.0,0.0,0.0
10:05:34,553768.0,0.0,0.0
10:05:34,554499.0,0.0,0.0
10:05:34,553791.0,0.0,0.0
10:05:34,554183.0,0.0,0.0
10:05:34,553994.0,0.0,0.0
10:05:34,553653.0,0.0,0.0
10:05:34,554337.0,0.0,0.0
10:05:34,553678.0,0.0,0.0
10:05:34,554158.0,0.0,0.0
10:05:34,553979.0,0.0,0.0
10:05:34,553564.0,0.0,0.0
10:05:34,554196.0,0.0,0.0
10:05:34,553546.0,0.0,0.0
10:05:34,554126.0,0.0,0.0
10:05:34,554063.0,0.0,0.0
10:05:34,553589.0,0.0,0.0
10:05:34,554139.0,0.0,0.0
10:05:34,553509.0,0.0,0.0
10:05:34,554006.0,0.0,0.0
10:05:34,553928.0,0.0,0.0
10:05:34,553493.0,0.0,0.0
10:05:34,553970.0,0.0,0.0
10:05:34,553276.0,0.0,0.0
10:05:34,553766.0,0.0,0.0
10:05:34,553769.0,0.0,0.0
10:05:34,553417.0,0.0,0.0
10:05:34,553925.0,0.0,0.0
10:05:34,553170.0,0.0,0.0
10:05:34,553688.0,0.0,0.0
10:05:34,553843.0,0.0,0.0
10:05:34,553513.0,0.0,0.0
10:05:34,554229.0,0.0,0.0
10:05:34,553214.0,0.0,0.0
10:05:34,553511.0,0.0,0.0
10:05:34,553410.0,0.0,0.0
10:05:34,553056.0,0.0,0.0
10:05:34,553840.0,0.0,0.0
10:05:34,553018.0,0.0,0.0
10:05:34,553454.0,0.0,0.0
10:05:34,553388.0,0.0,0.0
10:05:34,552984.0,0.0,0.0
10:05:34,553892.0,0.0,0.0
10:05:34,552931.0,0.0,0.0
10:05:34,553454.0,0.0,0.0
10:05:34,553318.0,0.0,0.0
10:05:34,552693.0,0.0,0.0
10:05:34,553742.0,0.0,0.0
10:05:34,552766.0,0.0,0.0
10:05:34,553421.0,0.0,0.0
10:05:35,553303.0,0.0,0.0
10:05:35,552416.0,0.0,0.0
10:05:35,553426.0,0.0,0.0
10:05:35,552657.0,0.0,0.0
10:05:35,553412.0,0.0,0.0
10:05:35,553376.0,0.0,0.0
10:05:35,552457.0,0.0,0.0
10:05:35,553348.0,0.0,0.0
10:05:35,552503.0,0.0,0.0
10:05:35,553261.0,0.0,0.0
10:05:35,553536.0,0.0,0.0
10:05:35,552695.0,0.0,0.0
10:05:35,553617.0,0.0,0.0
10:05:35,552713.0,0.0,0.0
10:05:35,553346.0,0.0,0.0
10:05:35,553531.0,0.0,0.0
10:05:35,552950.0,0.0,0.0
10:05:35,553823.0,0.0,0.0
10:05:35,552834.0,0.0,0.0
10:05:35,553441.0,0.0,0.0
10:05:35,553516.0,0.0,0.0
10:05:35,552858.0,0.0,0.0
10:05:35,553825.0,0.0,0.0
10:05:35,552918.0,0.0,0.0
10:05:35,553466.0,0.0,0.0
10:05:35,553464.0,0.0,0.0
10:05:35,553079.0,0.0,0.0
10:05:35,554169.0,0.0,0.0
10:05:35,553230.0,0.0,0.0
10:05:35,553698.0,0.0,0.0
10:05:35,553715.0,0.0,0.0
10:05:35,553254.0,0.0,0.0
10:05:35,554329.0,0.0,0.0
10:05:35,553464.0,0.0,0.0
10:05:35,553994.0,0.0,0.0
10:05:35,553884.0,0.0,0.0
10:05:35,553236.0,0.0,0.0
10:05:35,554204.0,0.0,0.0
10:05:35,553376.0,0.0,0.0
10:05:35,553889.0,0.0,0.0
10:05:35,553896.0,0.0,0.0
10:05:35,553315.0,0.0,0.0
10:05:35,554248.0,0.0,0.0
10:05:35,553458.0,0.0,0.0
10:05:35,554042.0,0.0,0.0
10:05:35,554119.0,0.0,0.0
10:05:35,553498.0,0.0,0.0
10:05:35,554210.0,0.0,0.0
10:05:35,553498.0,0.0,0.0
10:05:35,554039.0,0.0,0.0
10:05:35,554112.0,0.0,0.0
10:05:35,553633.0,0.0,0.0
10:05:35,554254.0,0.0,0.0
10:05:35,553540.0,0.0,0.0
10:05:35,554079.0,0.0,0.0
10:05:35,554094.0,0.0,0.0
10:05:35,553598.0,0.0,0.0
10:05:35,554202.0,0.0,0.0
10:05:35,553637.0,0.0,0.0
10:05:35,554281.0,0.0,0.0
10:05:35,554196.0,0.0,0.0
10:05:35,553679.0,0.0,0.0
10:05:35,554121.0,0.0,0.0
10:05:35,553250.0,0.0,0.0
10:05:35,553436.0,0.0,0.0
10:05:35,553415.0,0.0,0.0
10:05:35,553133.0,0.0,0.0
10:05:35,553980.0,0.0,0.0
10:05:35,553283.0,0.0,0.0
10:05:35,553563.0,0.0,0.0
10:05:35,553486.0,0.0,0.0
10:05:35,553059.0,0.0,0.0
10:05:35,553728.0,0.0,0.0
10:05:35,553057.0,0.0,0.0
10:05:35,553358.0,0.0,0.0
10:05:35,553278.0,0.0,0.0
10:05:35,552720.0,0.0,0.0
10:05:35,553272.0,0.0,0.0
10:05:35,552649.0,0.0,0.0
10:05:35,553089.0,0.0,0.0
10:05:35,553152.0,0.0,0.0
10:05:35,552651.0,0.0,0.0
10:05:35,553283.0,0.0,0.0
10:05:35,552688.0,0.0,0.0
10:05:35,553147.0,0.0,0.0
10:05:35,553146.0,0.0,0.0
10:05:35,552564.0,0.0,0.0
10:05:35,553083.0,0.0,0.0
10:05:35,552402.0,0.0,0.0
10:05:35,552869.0,0.0,0.0
10:05:35,552924.0,0.0,0.0
10:05:35,552469.0,0.0,0.0
10:05:35,553113.0,0.0,0.0
10:05:35,552369.0,0.0,0.0
10:05:35,552670.0,0.0,0.0
10:05:35,552691.0,0.0,0.0
10:05:35,552215.0,0.0,0.0
10:05:35,552783.0,0.0,0.0
10:05:35,551991.0,0.0,0.0
10:05:35,552281.0,0.0,0.0
10:05:35,552337.0,0.0,0.0
10:05:35,551904.0,0.0,0.0
10:05:35,552583.0,0.0,0.0
10:05:35,551983.0,0.0,0.0
10:05:35,552291.0,0.0,0.0
10:05:35,552276.0,0.0,0.0
10:05:35,551815.0,0.0,0.0
10:05:35,552486.0,0.0,0.0
10:05:35,551822.0,0.0,0.0
10:05:35,552081.0,0.0,0.0
10:05:35,552041.0,0.0,0.0
10:05:35,551516.0,0.0,0.0
10:05:35,552234.0,0.0,0.0
10:05:35,551544.0,0.0,0.0
10:05:35,551883.0,0.0,0.0
10:05:35,551839.0,0.0,0.0
10:05:35,551165.0,0.0,0.0
10:05:35,551921.0,0.0,0.0
10:05:35,551326.0,0.0,0.0
10:05:35,551779.0,0.0,0.0
10:05:35,551816.0,0.0,0.0
10:05:35,551101.0,0.0,0.0
10:05:35,551873.0,0.0,0.0
10:05:35,551174.0,0.0,0.0
10:05:35,551569.0,0.0,0.0
10:05:36,551604.0,0.0,0.0
10:05:36,550906.0,0.0,0.0
10:05:36,551807.0,0.0,0.0
10:05:36,550903.0,0.0,0.0
10:05:36,551286.0,0.0,0.0
10:05:36,551449.0,0.0,0.0
10:05:36,550816.0,0.0,0.0
10:05:36,551629.0,0.0,0.0
10:05:36,550434.0,0.0,0.0
10:05:36,550753.0,0.0,0.0
10:05:36,551006.0,0.0,0.0
10:05:36,550530.0,0.0,0.0
10:05:36,551811.0,0.0,0.0
10:05:36,550806.0,0.0,0.0
10:05:36,551166.0,0.0,0.0
10:05:36,551173.0,0.0,0.0
10:05:36,550551.0,0.0,0.0
10:05:36,551610.0,0.0,0.0
10:05:36,550843.0,0.0,0.0
10:05:36,551211.0,0.0,0.0
10:05:36,551337.0,0.0,0.0
10:05:36,550851.0,0.0,0.0
10:05:36,551888.0,0.0,0.0
10:05:36,551200.0,0.0,0.0
10:05:36,551633.0,0.0,0.0
10:05:36,551621.0,0.0,0.0
10:05:36,550888.0,0.0,0.0
10:05:36,551716.0,0.0,0.0
10:05:36,550711.0,0.0,0.0
10:05:36,551040.0,0.0,0.0
10:05:36,551027.0,0.0,0.0
10:05:36,550195.0,0.0,0.0
10:05:36,551068.0,0.0,0.0
10:05:36,550488.0,0.0,0.0
10:05:36,551188.0,0.0,0.0
10:05:36,551332.0,0.0,0.0
10:05:36,550574.0,0.0,0.0
10:05:36,551479.0,0.0,0.0
10:05:36,550619.0,0.0,0.0
10:05:36,551101.0,0.0,0.0
10:05:36,551345.0,0.0,0.0
10:05:36,550681.0,0.0,0.0
10:05:36,551600.0,0.0,0.0
10:05:36,550698.0,0.0,0.0
10:05:36,551196.0,0.0,0.0
10:05:36,551348.0,0.0,0.0
10:05:36,550644.0,0.0,0.0
10:05:36,551592.0,0.0,0.0
10:05:36,550594.0,0.0,0.0
10:05:36,551064.0,0.0,0.0
10:05:36,551280.0,0.0,0.0
10:05:36,550699.0,0.0,0.0
10:05:36,551771.0,0.0,0.0
10:05:36,550749.0,0.0,0.0
10:05:36,551100.0,0.0,0.0
10:05:36,551218.0,0.0,0.0
10:05:36,550554.0,0.0,0.0
10:05:36,551584.0,0.0,0.0
10:05:36,550493.0,0.0,0.0
10:05:36,550968.0,0.0,0.0
10:05:36,551236.0,0.0,0.0
10:05:36,550607.0,0.0,0.0
10:05:36,551660.0,0.0,0.0
10:05:36,550658.0,0.0,0.0
10:05:36,550912.0,0.0,0.0
10:05:36,551033.0,0.0,0.0
10:05:36,550219.0,0.0,0.0
10:05:36,551330.0,0.0,0.0
10:05:36,550525.0,0.0,0.0
10:05:36,550981.0,0.0,0.0
10:05:36,551019.0,0.0,0.0
10:05:36,550111.0,0.0,0.0
10:05:36,551123.0,0.0,0.0
10:05:36,550257.0,0.0,0.0
10:05:36,550624.0,0.0,0.0
10:05:36,550866.0,0.0,0.0
10:05:36,549990.0,0.0,0.0
10:05:36,550893.0,0.0,0.0
10:05:36,550039.0,0.0,0.0
10:05:36,550510.0,0.0,0.0
10:05:36,550819.0,0.0,0.0
10:05:36,550011.0,0.0,0.0
10:05:36,551001.0,0.0,0.0
10:05:36,550101.0,0.0,0.0
10:05:36,550575.0,0.0,0.0
10:05:36,550854.0,0.0,0.0
10:05:36,550128.0,0.0,0.0
10:05:36,551159.0,0.0,0.0
10:05:36,550234.0,0.0,0.0
10:05:36,550770.0,0.0,0.0
10:05:36,551250.0,0.0,0.0
10:05:36,550566.0,0.0,0.0
10:05:36,551722.0,0.0,0.0
10:05:36,550576.0,0.0,0.0
10:05:36,550815.0,0.0,0.0
10:05:36,551012.0,0.0,0.0
10:05:36,550294.0,0.0,0.0
10:05:36,551491.0,0.0,0.0
10:05:36,550683.0,0.0,0.0
10:05:36,551056.0,0.0,0.0
10:05:36,551302.0,0.0,0.0
10:05:36,550592.0,0.0,0.0
10:05:36,551777.0,0.0,0.0
10:05:36,551028.0,0.0,0.0
10:05:36,551374.0,0.0,0.0
10:05:36,551549.0,0.0,0.0
10:05:36,550783.0,0.0,0.0
10:05:36,551826.0,0.0,0.0
10:05:36,551021.0,0.0,0.0
10:05:36,551460.0,0.0,0.0
10:05:36,551729.0,0.0,0.0
10:05:36,550865.0,0.0,0.0
10:05:36,551682.0,0.0,0.0
10:05:36,550955.0,0.0,0.0
