TimeStramp,ECG,SpO2,Respiration
14:03:00,466465.0,0.0,0.0
14:03:00,466558.0,0.0,0.0
14:03:00,466458.0,0.0,0.0
14:03:00,466564.0,0.0,0.0
14:03:00,466547.0,0.0,0.0
14:03:00,466578.0,0.0,0.0
14:03:00,466701.0,0.0,0.0
14:03:00,466573.0,0.0,0.0
14:03:00,466697.0,0.0,0.0
14:03:00,466642.0,0.0,0.0
14:03:00,466604.0,0.0,0.0
14:03:00,466746.0,0.0,0.0
14:03:00,466629.0,0.0,0.0
14:03:00,466688.0,0.0,0.0
14:03:00,466656.0,0.0,0.0
14:03:00,466656.0,0.0,0.0
14:03:00,466733.0,0.0,0.0
14:03:00,466641.0,0.0,0.0
14:03:00,466769.0,0.0,0.0
14:03:00,466733.0,0.0,0.0
14:03:00,466725.0,0.0,0.0
14:03:00,466774.0,0.0,0.0
14:03:00,466666.0,0.0,0.0
14:03:00,466784.0,0.0,0.0
14:03:00,466703.0,0.0,0.0
14:03:00,466707.0,0.0,0.0
14:03:00,466826.0,0.0,0.0
14:03:00,466701.0,0.0,0.0
14:03:00,466786.0,0.0,0.0
14:03:00,466734.0,0.0,0.0
14:03:00,466739.0,0.0,0.0
14:03:00,466826.0,0.0,0.0
14:03:00,466686.0,0.0,0.0
14:03:00,466789.0,0.0,0.0
14:03:00,466761.0,0.0,0.0
14:03:00,466758.0,0.0,0.0
14:03:00,466863.0,0.0,0.0
14:03:00,466770.0,0.0,0.0
14:03:00,466870.0,0.0,0.0
14:03:00,466848.0,0.0,0.0
14:03:00,466864.0,0.0,0.0
14:03:00,466963.0,0.0,0.0
14:03:00,466862.0,0.0,0.0
14:03:00,466966.0,0.0,0.0
14:03:00,466954.0,0.0,0.0
14:03:00,466988.0,0.0,0.0
14:03:00,467142.0,0.0,0.0
14:03:00,466996.0,0.0,0.0
14:03:00,467100.0,0.0,0.0
14:03:00,467039.0,0.0,0.0
14:03:00,467026.0,0.0,0.0
14:03:00,467123.0,0.0,0.0
14:03:00,467000.0,0.0,0.0
14:03:00,467134.0,0.0,0.0
14:03:00,467073.0,0.0,0.0
14:03:00,467038.0,0.0,0.0
14:03:00,467132.0,0.0,0.0
14:03:00,467016.0,0.0,0.0
14:03:00,467115.0,0.0,0.0
14:03:00,467074.0,0.0,0.0
14:03:00,467076.0,0.0,0.0
14:03:00,467201.0,0.0,0.0
14:03:00,467050.0,0.0,0.0
14:03:00,467139.0,0.0,0.0
14:03:00,467121.0,0.0,0.0
14:03:00,467106.0,0.0,0.0
14:03:00,467223.0,0.0,0.0
14:03:00,467103.0,0.0,0.0
14:03:00,467199.0,0.0,0.0
14:03:00,467094.0,0.0,0.0
14:03:00,467034.0,0.0,0.0
14:03:00,467143.0,0.0,0.0
14:03:00,467006.0,0.0,0.0
14:03:00,467111.0,0.0,0.0
14:03:00,467074.0,0.0,0.0
14:03:00,467047.0,0.0,0.0
14:03:00,467138.0,0.0,0.0
14:03:00,466997.0,0.0,0.0
14:03:00,467038.0,0.0,0.0
14:03:00,466935.0,0.0,0.0
14:03:00,466989.0,0.0,0.0
14:03:00,467244.0,0.0,0.0
14:03:00,467266.0,0.0,0.0
14:03:00,467354.0,0.0,0.0
14:03:00,467128.0,0.0,0.0
14:03:00,467021.0,0.0,0.0
14:03:00,467108.0,0.0,0.0
14:03:00,467053.0,0.0,0.0
14:03:00,467179.0,0.0,0.0
14:03:00,467136.0,0.0,0.0
14:03:00,467113.0,0.0,0.0
14:03:00,467188.0,0.0,0.0
14:03:00,467098.0,0.0,0.0
14:03:00,467256.0,0.0,0.0
14:03:00,467219.0,0.0,0.0
14:03:00,467179.0,0.0,0.0
14:03:00,467256.0,0.0,0.0
14:03:00,467095.0,0.0,0.0
14:03:00,467162.0,0.0,0.0
14:03:00,467128.0,0.0,0.0
14:03:00,467084.0,0.0,0.0
14:03:00,467187.0,0.0,0.0
14:03:00,467058.0,0.0,0.0
14:03:00,467143.0,0.0,0.0
14:03:00,467098.0,0.0,0.0
14:03:00,467026.0,0.0,0.0
14:03:00,467123.0,0.0,0.0
14:03:00,467028.0,0.0,0.0
14:03:00,467136.0,0.0,0.0
14:03:00,467063.0,0.0,0.0
14:03:00,467031.0,0.0,0.0
14:03:00,467085.0,0.0,0.0
14:03:00,466906.0,0.0,0.0
14:03:00,466964.0,0.0,0.0
14:03:00,466885.0,0.0,0.0
14:03:00,466797.0,0.0,0.0
14:03:00,466809.0,0.0,0.0
14:03:00,466609.0,0.0,0.0
14:03:00,466643.0,0.0,0.0
14:03:00,466504.0,0.0,0.0
14:03:00,466416.0,0.0,0.0
14:03:00,466481.0,0.0,0.0
14:03:00,466316.0,0.0,0.0
14:03:00,466404.0,0.0,0.0
14:03:00,466355.0,0.0,0.0
14:03:01,466327.0,0.0,0.0
14:03:01,466405.0,0.0,0.0
14:03:01,466276.0,0.0,0.0
14:03:01,466406.0,0.0,0.0
14:03:01,466364.0,0.0,0.0
14:03:01,466315.0,0.0,0.0
14:03:01,466414.0,0.0,0.0
14:03:01,466278.0,0.0,0.0
14:03:01,466354.0,0.0,0.0
14:03:01,466322.0,0.0,0.0
14:03:01,466296.0,0.0,0.0
14:03:01,466413.0,0.0,0.0
14:03:01,466308.0,0.0,0.0
14:03:01,466448.0,0.0,0.0
14:03:01,466408.0,0.0,0.0
14:03:01,466378.0,0.0,0.0
14:03:01,466513.0,0.0,0.0
14:03:01,466416.0,0.0,0.0
14:03:01,466567.0,0.0,0.0
14:03:01,466568.0,0.0,0.0
14:03:01,466526.0,0.0,0.0
14:03:01,466658.0,0.0,0.0
14:03:01,466558.0,0.0,0.0
14:03:01,466706.0,0.0,0.0
14:03:01,466713.0,0.0,0.0
14:03:01,466726.0,0.0,0.0
14:03:01,466853.0,0.0,0.0
14:03:01,466738.0,0.0,0.0
14:03:01,466845.0,0.0,0.0
14:03:01,466850.0,0.0,0.0
14:03:01,466868.0,0.0,0.0
14:03:01,467013.0,0.0,0.0
14:03:01,466929.0,0.0,0.0
14:03:01,467034.0,0.0,0.0
14:03:01,467041.0,0.0,0.0
14:03:01,466974.0,0.0,0.0
14:03:01,467113.0,0.0,0.0
14:03:01,467040.0,0.0,0.0
14:03:01,467204.0,0.0,0.0
14:03:01,467205.0,0.0,0.0
14:03:01,467138.0,0.0,0.0
14:03:01,467224.0,0.0,0.0
14:03:01,467151.0,0.0,0.0
14:03:01,467395.0,0.0,0.0
14:03:01,467509.0,0.0,0.0
14:03:01,467605.0,0.0,0.0
14:03:01,467711.0,0.0,0.0
14:03:01,467482.0,0.0,0.0
14:03:01,467541.0,0.0,0.0
14:03:01,467549.0,0.0,0.0
14:03:01,467579.0,0.0,0.0
14:03:01,467741.0,0.0,0.0
14:03:01,467660.0,0.0,0.0
14:03:01,467783.0,0.0,0.0
14:03:01,467815.0,0.0,0.0
14:03:01,467811.0,0.0,0.0
14:03:01,467972.0,0.0,0.0
14:03:01,467906.0,0.0,0.0
14:03:01,468038.0,0.0,0.0
14:03:01,468057.0,0.0,0.0
14:03:01,468044.0,0.0,0.0
14:03:01,468201.0,0.0,0.0
14:03:01,468098.0,0.0,0.0
14:03:01,468243.0,0.0,0.0
14:03:01,468211.0,0.0,0.0
14:03:01,468211.0,0.0,0.0
14:03:01,468381.0,0.0,0.0
14:03:01,468288.0,0.0,0.0
14:03:01,468426.0,0.0,0.0
14:03:01,468458.0,0.0,0.0
14:03:01,468480.0,0.0,0.0
14:03:01,468652.0,0.0,0.0
14:03:01,468569.0,0.0,0.0
14:03:01,468702.0,0.0,0.0
14:03:01,468719.0,0.0,0.0
14:03:01,468699.0,0.0,0.0
14:03:01,468847.0,0.0,0.0
14:03:01,468819.0,0.0,0.0
14:03:01,468931.0,0.0,0.0
14:03:01,468977.0,0.0,0.0
14:03:01,469000.0,0.0,0.0
14:03:01,469114.0,0.0,0.0
14:03:01,469010.0,0.0,0.0
14:03:01,469119.0,0.0,0.0
14:03:01,469122.0,0.0,0.0
14:03:01,469089.0,0.0,0.0
14:03:01,469243.0,0.0,0.0
14:03:01,469164.0,0.0,0.0
14:03:01,469259.0,0.0,0.0
14:03:01,469291.0,0.0,0.0
14:03:01,469308.0,0.0,0.0
14:03:01,469426.0,0.0,0.0
14:03:01,469368.0,0.0,0.0
14:03:01,469535.0,0.0,0.0
14:03:01,469556.0,0.0,0.0
14:03:01,469524.0,0.0,0.0
14:03:01,469658.0,0.0,0.0
14:03:01,469603.0,0.0,0.0
14:03:01,469725.0,0.0,0.0
14:03:01,469763.0,0.0,0.0
14:03:01,469790.0,0.0,0.0
14:03:01,469934.0,0.0,0.0
14:03:01,469872.0,0.0,0.0
14:03:01,470009.0,0.0,0.0
14:03:01,470028.0,0.0,0.0
14:03:01,470002.0,0.0,0.0
14:03:01,470083.0,0.0,0.0
14:03:01,470049.0,0.0,0.0
14:03:01,470170.0,0.0,0.0
14:03:01,470149.0,0.0,0.0
14:03:01,470178.0,0.0,0.0
14:03:01,470267.0,0.0,0.0
14:03:01,470214.0,0.0,0.0
14:03:01,470383.0,0.0,0.0
14:03:01,470398.0,0.0,0.0
14:03:01,470443.0,0.0,0.0
14:03:01,470543.0,0.0,0.0
14:03:01,470490.0,0.0,0.0
14:03:01,470594.0,0.0,0.0
14:03:01,470581.0,0.0,0.0
14:03:01,470634.0,0.0,0.0
14:03:01,470766.0,0.0,0.0
14:03:01,470766.0,0.0,0.0
14:03:01,470886.0,0.0,0.0
14:03:01,470865.0,0.0,0.0
14:03:02,471024.0,0.0,0.0
14:03:02,471254.0,0.0,0.0
14:03:02,471230.0,0.0,0.0
14:03:02,471312.0,0.0,0.0
14:03:02,471152.0,0.0,0.0
14:03:02,471177.0,0.0,0.0
14:03:02,471254.0,0.0,0.0
14:03:02,471198.0,0.0,0.0
14:03:02,471287.0,0.0,0.0
14:03:02,471209.0,0.0,0.0
14:03:02,471203.0,0.0,0.0
14:03:02,471264.0,0.0,0.0
14:03:02,471145.0,0.0,0.0
14:03:02,471192.0,0.0,0.0
14:03:02,471101.0,0.0,0.0
14:03:02,471104.0,0.0,0.0
14:03:02,471179.0,0.0,0.0
14:03:02,471063.0,0.0,0.0
14:03:02,471117.0,0.0,0.0
14:03:02,471028.0,0.0,0.0
14:03:02,470973.0,0.0,0.0
14:03:02,471016.0,0.0,0.0
14:03:02,470858.0,0.0,0.0
14:03:02,470911.0,0.0,0.0
14:03:02,470868.0,0.0,0.0
14:03:02,470806.0,0.0,0.0
14:03:02,470855.0,0.0,0.0
14:03:02,470707.0,0.0,0.0
14:03:02,470816.0,0.0,0.0
14:03:02,470759.0,0.0,0.0
14:03:02,470821.0,0.0,0.0
14:03:02,470960.0,0.0,0.0
14:03:02,470887.0,0.0,0.0
14:03:02,471051.0,0.0,0.0
14:03:02,471063.0,0.0,0.0
14:03:02,471170.0,0.0,0.0
14:03:02,471368.0,0.0,0.0
14:03:02,471404.0,0.0,0.0
14:03:02,471646.0,0.0,0.0
14:03:02,471679.0,0.0,0.0
14:03:02,471801.0,0.0,0.0
14:03:02,472021.0,0.0,0.0
14:03:02,472088.0,0.0,0.0
14:03:02,472311.0,0.0,0.0
14:03:02,472353.0,0.0,0.0
14:03:02,472443.0,0.0,0.0
14:03:02,472536.0,0.0,0.0
14:03:02,472420.0,0.0,0.0
14:03:02,472499.0,0.0,0.0
14:03:02,472393.0,0.0,0.0
14:03:02,472388.0,0.0,0.0
14:03:02,472459.0,0.0,0.0
14:03:02,472336.0,0.0,0.0
14:03:02,472464.0,0.0,0.0
14:03:02,472453.0,0.0,0.0
14:03:02,472532.0,0.0,0.0
14:03:02,472641.0,0.0,0.0
14:03:02,472608.0,0.0,0.0
14:03:02,472739.0,0.0,0.0
14:03:02,472658.0,0.0,0.0
14:03:02,472616.0,0.0,0.0
14:03:02,472648.0,0.0,0.0
14:03:02,472635.0,0.0,0.0
14:03:02,472841.0,0.0,0.0
14:03:02,472856.0,0.0,0.0
14:03:02,472866.0,0.0,0.0
14:03:02,472933.0,0.0,0.0
14:03:02,472869.0,0.0,0.0
14:03:02,472961.0,0.0,0.0
14:03:02,472963.0,0.0,0.0
14:03:02,473004.0,0.0,0.0
14:03:02,473192.0,0.0,0.0
14:03:02,473191.0,0.0,0.0
14:03:02,473316.0,0.0,0.0
14:03:02,473350.0,0.0,0.0
14:03:02,473376.0,0.0,0.0
14:03:02,473451.0,0.0,0.0
14:03:02,473354.0,0.0,0.0
14:03:02,473506.0,0.0,0.0
14:03:02,473497.0,0.0,0.0
14:03:02,473533.0,0.0,0.0
14:03:02,473531.0,0.0,0.0
14:03:02,473261.0,0.0,0.0
14:03:02,473271.0,0.0,0.0
14:03:02,473200.0,0.0,0.0
14:03:02,473072.0,0.0,0.0
14:03:02,472961.0,0.0,0.0
14:03:02,472755.0,0.0,0.0
14:03:02,472818.0,0.0,0.0
14:03:02,472677.0,0.0,0.0
14:03:02,472643.0,0.0,0.0
14:03:02,472649.0,0.0,0.0
14:03:02,472437.0,0.0,0.0
14:03:02,472467.0,0.0,0.0
14:03:02,472301.0,0.0,0.0
14:03:02,472250.0,0.0,0.0
14:03:02,472139.0,0.0,0.0
14:03:02,471909.0,0.0,0.0
14:03:02,472051.0,0.0,0.0
14:03:02,472054.0,0.0,0.0
14:03:02,472084.0,0.0,0.0
14:03:02,472114.0,0.0,0.0
14:03:02,472028.0,0.0,0.0
14:03:02,472104.0,0.0,0.0
14:03:02,472010.0,0.0,0.0
14:03:02,471973.0,0.0,0.0
14:03:02,471968.0,0.0,0.0
14:03:02,471878.0,0.0,0.0
14:03:02,471990.0,0.0,0.0
14:03:02,471948.0,0.0,0.0
14:03:02,471854.0,0.0,0.0
14:03:02,471938.0,0.0,0.0
14:03:02,471863.0,0.0,0.0
14:03:02,471829.0,0.0,0.0
14:03:02,471708.0,0.0,0.0
14:03:02,471536.0,0.0,0.0
14:03:02,471520.0,0.0,0.0
14:03:02,471379.0,0.0,0.0
14:03:02,471346.0,0.0,0.0
14:03:02,471329.0,0.0,0.0
14:03:02,471286.0,0.0,0.0
14:03:02,471310.0,0.0,0.0
14:03:02,471153.0,0.0,0.0
14:03:02,471151.0,0.0,0.0
14:03:02,471099.0,0.0,0.0
14:03:03,471001.0,0.0,0.0
14:03:03,471028.0,0.0,0.0
14:03:03,470827.0,0.0,0.0
14:03:03,470844.0,0.0,0.0
14:03:03,470746.0,0.0,0.0
14:03:03,470686.0,0.0,0.0
14:03:03,470695.0,0.0,0.0
14:03:03,470588.0,0.0,0.0
14:03:03,470704.0,0.0,0.0
14:03:03,470670.0,0.0,0.0
14:03:03,470690.0,0.0,0.0
14:03:03,470778.0,0.0,0.0
14:03:03,470716.0,0.0,0.0
14:03:03,470861.0,0.0,0.0
14:03:03,470759.0,0.0,0.0
14:03:03,470741.0,0.0,0.0
14:03:03,470762.0,0.0,0.0
14:03:03,470605.0,0.0,0.0
14:03:03,470673.0,0.0,0.0
14:03:03,470589.0,0.0,0.0
14:03:03,470563.0,0.0,0.0
14:03:03,470619.0,0.0,0.0
14:03:03,470475.0,0.0,0.0
14:03:03,470549.0,0.0,0.0
14:03:03,470406.0,0.0,0.0
14:03:03,470278.0,0.0,0.0
14:03:03,470359.0,0.0,0.0
14:03:03,470208.0,0.0,0.0
14:03:03,470431.0,0.0,0.0
14:03:03,470313.0,0.0,0.0
14:03:03,470224.0,0.0,0.0
14:03:03,470071.0,0.0,0.0
14:03:03,469862.0,0.0,0.0
14:03:03,469947.0,0.0,0.0
14:03:03,469938.0,0.0,0.0
14:03:03,470033.0,0.0,0.0
14:03:03,470235.0,0.0,0.0
14:03:03,470011.0,0.0,0.0
14:03:03,469855.0,0.0,0.0
14:03:03,469685.0,0.0,0.0
14:03:03,469673.0,0.0,0.0
14:03:03,469721.0,0.0,0.0
14:03:03,469597.0,0.0,0.0
14:03:03,469611.0,0.0,0.0
14:03:03,469586.0,0.0,0.0
14:03:03,469526.0,0.0,0.0
14:03:03,469488.0,0.0,0.0
14:03:03,469291.0,0.0,0.0
14:03:03,469260.0,0.0,0.0
14:03:03,469147.0,0.0,0.0
14:03:03,469023.0,0.0,0.0
14:03:03,468938.0,0.0,0.0
14:03:03,468737.0,0.0,0.0
14:03:03,468801.0,0.0,0.0
14:03:03,468721.0,0.0,0.0
14:03:03,468588.0,0.0,0.0
14:03:03,468588.0,0.0,0.0
14:03:03,468373.0,0.0,0.0
14:03:03,468438.0,0.0,0.0
14:03:03,468416.0,0.0,0.0
14:03:03,468371.0,0.0,0.0
14:03:03,468463.0,0.0,0.0
14:03:03,468426.0,0.0,0.0
14:03:03,468554.0,0.0,0.0
14:03:03,468595.0,0.0,0.0
14:03:03,468576.0,0.0,0.0
14:03:03,468693.0,0.0,0.0
14:03:03,468606.0,0.0,0.0
14:03:03,468706.0,0.0,0.0
14:03:03,468751.0,0.0,0.0
14:03:03,468702.0,0.0,0.0
14:03:03,468818.0,0.0,0.0
14:03:03,468718.0,0.0,0.0
14:03:03,468771.0,0.0,0.0
14:03:03,468714.0,0.0,0.0
14:03:03,468690.0,0.0,0.0
14:03:03,468825.0,0.0,0.0
14:03:03,468710.0,0.0,0.0
14:03:03,468786.0,0.0,0.0
14:03:03,468773.0,0.0,0.0
14:03:03,468703.0,0.0,0.0
14:03:03,468726.0,0.0,0.0
14:03:03,468580.0,0.0,0.0
14:03:03,468640.0,0.0,0.0
14:03:03,468576.0,0.0,0.0
14:03:03,468472.0,0.0,0.0
14:03:03,468502.0,0.0,0.0
14:03:03,468414.0,0.0,0.0
14:03:03,468512.0,0.0,0.0
14:03:03,468518.0,0.0,0.0
14:03:03,468459.0,0.0,0.0
14:03:03,468513.0,0.0,0.0
14:03:03,468384.0,0.0,0.0
14:03:03,468421.0,0.0,0.0
14:03:03,468348.0,0.0,0.0
14:03:03,468212.0,0.0,0.0
14:03:03,468256.0,0.0,0.0
14:03:03,468126.0,0.0,0.0
14:03:03,468088.0,0.0,0.0
14:03:03,468032.0,0.0,0.0
14:03:03,467984.0,0.0,0.0
14:03:03,468033.0,0.0,0.0
14:03:03,467931.0,0.0,0.0
14:03:03,467985.0,0.0,0.0
14:03:03,467999.0,0.0,0.0
14:03:03,467946.0,0.0,0.0
14:03:03,468013.0,0.0,0.0
14:03:03,467874.0,0.0,0.0
14:03:03,467842.0,0.0,0.0
14:03:03,467751.0,0.0,0.0
14:03:03,467621.0,0.0,0.0
14:03:03,467604.0,0.0,0.0
14:03:03,467420.0,0.0,0.0
14:03:03,467490.0,0.0,0.0
14:03:03,467564.0,0.0,0.0
14:03:03,467609.0,0.0,0.0
14:03:03,467736.0,0.0,0.0
14:03:03,467446.0,0.0,0.0
14:03:03,467346.0,0.0,0.0
14:03:03,467193.0,0.0,0.0
14:03:03,467012.0,0.0,0.0
14:03:03,467009.0,0.0,0.0
14:03:03,466851.0,0.0,0.0
14:03:03,466894.0,0.0,0.0
14:03:03,466889.0,0.0,0.0
14:03:04,466772.0,0.0,0.0
14:03:04,466789.0,0.0,0.0
14:03:04,466621.0,0.0,0.0
14:03:04,466580.0,0.0,0.0
14:03:04,466510.0,0.0,0.0
14:03:04,466425.0,0.0,0.0
14:03:04,466521.0,0.0,0.0
14:03:04,466433.0,0.0,0.0
14:03:04,466459.0,0.0,0.0
14:03:04,466413.0,0.0,0.0
14:03:04,466313.0,0.0,0.0
14:03:04,466351.0,0.0,0.0
14:03:04,466281.0,0.0,0.0
14:03:04,466260.0,0.0,0.0
14:03:04,466220.0,0.0,0.0
14:03:04,466170.0,0.0,0.0
14:03:04,466237.0,0.0,0.0
14:03:04,466176.0,0.0,0.0
14:03:04,466218.0,0.0,0.0
14:03:04,466318.0,0.0,0.0
14:03:04,466286.0,0.0,0.0
14:03:04,466368.0,0.0,0.0
14:03:04,466273.0,0.0,0.0
14:03:04,466308.0,0.0,0.0
14:03:04,466324.0,0.0,0.0
14:03:04,466219.0,0.0,0.0
14:03:04,466297.0,0.0,0.0
14:03:04,466237.0,0.0,0.0
14:03:04,466249.0,0.0,0.0
14:03:04,466233.0,0.0,0.0
14:03:04,466170.0,0.0,0.0
14:03:04,466228.0,0.0,0.0
14:03:04,466125.0,0.0,0.0
14:03:04,466189.0,0.0,0.0
14:03:04,466226.0,0.0,0.0
14:03:04,466154.0,0.0,0.0
14:03:04,466178.0,0.0,0.0
14:03:04,466091.0,0.0,0.0
14:03:04,466093.0,0.0,0.0
14:03:04,466044.0,0.0,0.0
14:03:04,465978.0,0.0,0.0
14:03:04,466064.0,0.0,0.0
14:03:04,465982.0,0.0,0.0
14:03:04,465996.0,0.0,0.0
14:03:04,466006.0,0.0,0.0
14:03:04,465935.0,0.0,0.0
14:03:04,466053.0,0.0,0.0
14:03:04,466009.0,0.0,0.0
14:03:04,466038.0,0.0,0.0
14:03:04,466105.0,0.0,0.0
14:03:04,466059.0,0.0,0.0
14:03:04,466167.0,0.0,0.0
14:03:04,466096.0,0.0,0.0
14:03:04,466143.0,0.0,0.0
14:03:04,466205.0,0.0,0.0
14:03:04,466165.0,0.0,0.0
14:03:04,466219.0,0.0,0.0
14:03:04,466138.0,0.0,0.0
14:03:04,466138.0,0.0,0.0
14:03:04,466151.0,0.0,0.0
14:03:04,466088.0,0.0,0.0
14:03:04,466172.0,0.0,0.0
14:03:04,466037.0,0.0,0.0
14:03:04,466031.0,0.0,0.0
14:03:04,466001.0,0.0,0.0
14:03:04,465897.0,0.0,0.0
14:03:04,466008.0,0.0,0.0
14:03:04,466081.0,0.0,0.0
14:03:04,466305.0,0.0,0.0
14:03:04,466384.0,0.0,0.0
14:03:04,466111.0,0.0,0.0
14:03:04,466036.0,0.0,0.0
14:03:04,465906.0,0.0,0.0
14:03:04,466050.0,0.0,0.0
14:03:04,466214.0,0.0,0.0
14:03:04,466306.0,0.0,0.0
14:03:04,466571.0,0.0,0.0
14:03:04,466622.0,0.0,0.0
14:03:04,466826.0,0.0,0.0
14:03:04,467052.0,0.0,0.0
14:03:04,467189.0,0.0,0.0
14:03:04,467388.0,0.0,0.0
14:03:04,467279.0,0.0,0.0
14:03:04,467334.0,0.0,0.0
14:03:04,467291.0,0.0,0.0
14:03:04,467224.0,0.0,0.0
14:03:04,467295.0,0.0,0.0
14:03:04,467209.0,0.0,0.0
14:03:04,467306.0,0.0,0.0
14:03:04,467290.0,0.0,0.0
14:03:04,467163.0,0.0,0.0
14:03:04,467170.0,0.0,0.0
14:03:04,467098.0,0.0,0.0
14:03:04,467224.0,0.0,0.0
14:03:04,467194.0,0.0,0.0
14:03:04,466948.0,0.0,0.0
14:03:04,466892.0,0.0,0.0
14:03:04,466935.0,0.0,0.0
14:03:04,467154.0,0.0,0.0
14:03:04,467157.0,0.0,0.0
14:03:04,467099.0,0.0,0.0
14:03:04,467106.0,0.0,0.0
14:03:04,467021.0,0.0,0.0
14:03:04,467124.0,0.0,0.0
14:03:04,467101.0,0.0,0.0
14:03:04,467061.0,0.0,0.0
14:03:04,467124.0,0.0,0.0
14:03:04,467101.0,0.0,0.0
14:03:04,467249.0,0.0,0.0
14:03:04,467178.0,0.0,0.0
14:03:04,467209.0,0.0,0.0
14:03:04,467536.0,0.0,0.0
14:03:04,467584.0,0.0,0.0
14:03:04,467649.0,0.0,0.0
14:03:04,467648.0,0.0,0.0
14:03:04,467669.0,0.0,0.0
14:03:04,467740.0,0.0,0.0
14:03:04,467616.0,0.0,0.0
14:03:04,467686.0,0.0,0.0
14:03:04,467679.0,0.0,0.0
14:03:04,467598.0,0.0,0.0
14:03:04,467688.0,0.0,0.0
14:03:04,467520.0,0.0,0.0
14:03:04,467637.0,0.0,0.0
14:03:04,467680.0,0.0,0.0
14:03:05,467693.0,0.0,0.0
14:03:05,467871.0,0.0,0.0
14:03:05,467863.0,0.0,0.0
14:03:05,468088.0,0.0,0.0
14:03:05,468322.0,0.0,0.0
14:03:05,468527.0,0.0,0.0
14:03:05,468932.0,0.0,0.0
14:03:05,469048.0,0.0,0.0
14:03:05,469261.0,0.0,0.0
14:03:05,469374.0,0.0,0.0
14:03:05,469358.0,0.0,0.0
14:03:05,469464.0,0.0,0.0
14:03:05,469354.0,0.0,0.0
14:03:05,469388.0,0.0,0.0
14:03:05,469340.0,0.0,0.0
14:03:05,469291.0,0.0,0.0
14:03:05,469402.0,0.0,0.0
14:03:05,469286.0,0.0,0.0
14:03:05,469305.0,0.0,0.0
14:03:05,469342.0,0.0,0.0
14:03:05,469459.0,0.0,0.0
14:03:05,469694.0,0.0,0.0
14:03:05,469736.0,0.0,0.0
14:03:05,469797.0,0.0,0.0
14:03:05,469711.0,0.0,0.0
14:03:05,469577.0,0.0,0.0
14:03:05,469670.0,0.0,0.0
14:03:05,469625.0,0.0,0.0
14:03:05,469862.0,0.0,0.0
14:03:05,469903.0,0.0,0.0
14:03:05,469881.0,0.0,0.0
14:03:05,469982.0,0.0,0.0
14:03:05,469784.0,0.0,0.0
14:03:05,469687.0,0.0,0.0
14:03:05,469542.0,0.0,0.0
14:03:05,469502.0,0.0,0.0
14:03:05,469598.0,0.0,0.0
14:03:05,469491.0,0.0,0.0
14:03:05,469549.0,0.0,0.0
14:03:05,469471.0,0.0,0.0
14:03:05,469524.0,0.0,0.0
14:03:05,469649.0,0.0,0.0
14:03:05,469509.0,0.0,0.0
14:03:05,469541.0,0.0,0.0
14:03:05,469588.0,0.0,0.0
14:03:05,469591.0,0.0,0.0
14:03:05,469696.0,0.0,0.0
14:03:05,469647.0,0.0,0.0
14:03:05,469691.0,0.0,0.0
14:03:05,469723.0,0.0,0.0
14:03:05,469726.0,0.0,0.0
14:03:05,469884.0,0.0,0.0
14:03:05,469861.0,0.0,0.0
14:03:05,469971.0,0.0,0.0
14:03:05,470083.0,0.0,0.0
14:03:05,470146.0,0.0,0.0
14:03:05,470388.0,0.0,0.0
14:03:05,470483.0,0.0,0.0
14:03:05,470795.0,0.0,0.0
14:03:05,471058.0,0.0,0.0
14:03:05,471243.0,0.0,0.0
14:03:05,471512.0,0.0,0.0
14:03:05,471563.0,0.0,0.0
14:03:05,471764.0,0.0,0.0
14:03:05,471771.0,0.0,0.0
14:03:05,471793.0,0.0,0.0
14:03:05,471936.0,0.0,0.0
14:03:05,471859.0,0.0,0.0
14:03:05,471950.0,0.0,0.0
14:03:05,471978.0,0.0,0.0
14:03:05,471978.0,0.0,0.0
14:03:05,472066.0,0.0,0.0
14:03:05,471962.0,0.0,0.0
14:03:05,472174.0,0.0,0.0
14:03:05,472119.0,0.0,0.0
14:03:05,472046.0,0.0,0.0
14:03:05,472081.0,0.0,0.0
14:03:05,471942.0,0.0,0.0
14:03:05,472137.0,0.0,0.0
14:03:05,472254.0,0.0,0.0
14:03:05,472195.0,0.0,0.0
14:03:05,472254.0,0.0,0.0
14:03:05,472031.0,0.0,0.0
14:03:05,472034.0,0.0,0.0
14:03:05,472049.0,0.0,0.0
14:03:05,472107.0,0.0,0.0
14:03:05,472110.0,0.0,0.0
14:03:05,471938.0,0.0,0.0
14:03:05,471964.0,0.0,0.0
14:03:05,471947.0,0.0,0.0
14:03:05,471843.0,0.0,0.0
14:03:05,471894.0,0.0,0.0
14:03:05,472054.0,0.0,0.0
14:03:05,472065.0,0.0,0.0
14:03:05,472084.0,0.0,0.0
14:03:05,471987.0,0.0,0.0
14:03:05,471975.0,0.0,0.0
14:03:05,471976.0,0.0,0.0
14:03:05,471855.0,0.0,0.0
14:03:05,471681.0,0.0,0.0
14:03:05,471609.0,0.0,0.0
14:03:05,471671.0,0.0,0.0
14:03:05,471627.0,0.0,0.0
14:03:05,471704.0,0.0,0.0
14:03:05,471677.0,0.0,0.0
14:03:05,471596.0,0.0,0.0
14:03:05,471726.0,0.0,0.0
14:03:05,471683.0,0.0,0.0
14:03:05,471621.0,0.0,0.0
14:03:05,471640.0,0.0,0.0
14:03:05,471614.0,0.0,0.0
14:03:05,471705.0,0.0,0.0
14:03:05,471636.0,0.0,0.0
14:03:05,471688.0,0.0,0.0
14:03:05,471727.0,0.0,0.0
14:03:05,471689.0,0.0,0.0
14:03:05,471662.0,0.0,0.0
14:03:05,471466.0,0.0,0.0
14:03:05,471434.0,0.0,0.0
14:03:05,471371.0,0.0,0.0
14:03:05,471278.0,0.0,0.0
14:03:05,471296.0,0.0,0.0
14:03:05,471182.0,0.0,0.0
14:03:05,471238.0,0.0,0.0
14:03:05,471335.0,0.0,0.0
14:03:06,471399.0,0.0,0.0
14:03:06,471648.0,0.0,0.0
14:03:06,471702.0,0.0,0.0
14:03:06,471893.0,0.0,0.0
14:03:06,471973.0,0.0,0.0
14:03:06,471805.0,0.0,0.0
14:03:06,471852.0,0.0,0.0
14:03:06,471716.0,0.0,0.0
14:03:06,471688.0,0.0,0.0
14:03:06,471731.0,0.0,0.0
14:03:06,471618.0,0.0,0.0
14:03:06,471579.0,0.0,0.0
14:03:06,471514.0,0.0,0.0
14:03:06,471688.0,0.0,0.0
14:03:06,471761.0,0.0,0.0
14:03:06,471665.0,0.0,0.0
14:03:06,471716.0,0.0,0.0
14:03:06,471614.0,0.0,0.0
14:03:06,471537.0,0.0,0.0
14:03:06,471469.0,0.0,0.0
14:03:06,471481.0,0.0,0.0
14:03:06,471565.0,0.0,0.0
14:03:06,471479.0,0.0,0.0
14:03:06,471439.0,0.0,0.0
14:03:06,471557.0,0.0,0.0
14:03:06,471466.0,0.0,0.0
14:03:06,471555.0,0.0,0.0
14:03:06,471414.0,0.0,0.0
14:03:06,471369.0,0.0,0.0
14:03:06,471203.0,0.0,0.0
14:03:06,471134.0,0.0,0.0
14:03:06,471213.0,0.0,0.0
14:03:06,471123.0,0.0,0.0
14:03:06,471176.0,0.0,0.0
14:03:06,471176.0,0.0,0.0
14:03:06,471164.0,0.0,0.0
14:03:06,471231.0,0.0,0.0
14:03:06,471169.0,0.0,0.0
14:03:06,471216.0,0.0,0.0
14:03:06,471087.0,0.0,0.0
14:03:06,471061.0,0.0,0.0
14:03:06,471138.0,0.0,0.0
14:03:06,471025.0,0.0,0.0
14:03:06,471195.0,0.0,0.0
14:03:06,471284.0,0.0,0.0
14:03:06,471351.0,0.0,0.0
14:03:06,471419.0,0.0,0.0
14:03:06,471221.0,0.0,0.0
14:03:06,471463.0,0.0,0.0
14:03:06,471599.0,0.0,0.0
14:03:06,471726.0,0.0,0.0
14:03:06,472033.0,0.0,0.0
14:03:06,472076.0,0.0,0.0
14:03:06,472061.0,0.0,0.0
14:03:06,472206.0,0.0,0.0
14:03:06,472303.0,0.0,0.0
14:03:06,472488.0,0.0,0.0
14:03:06,472446.0,0.0,0.0
14:03:06,472484.0,0.0,0.0
14:03:06,472413.0,0.0,0.0
14:03:06,472237.0,0.0,0.0
14:03:06,472176.0,0.0,0.0
14:03:06,471971.0,0.0,0.0
14:03:06,472058.0,0.0,0.0
14:03:06,472158.0,0.0,0.0
14:03:06,472069.0,0.0,0.0
14:03:06,472014.0,0.0,0.0
14:03:06,471910.0,0.0,0.0
14:03:06,471992.0,0.0,0.0
14:03:06,472017.0,0.0,0.0
14:03:06,472025.0,0.0,0.0
14:03:06,472103.0,0.0,0.0
14:03:06,471955.0,0.0,0.0
14:03:06,471996.0,0.0,0.0
14:03:06,472060.0,0.0,0.0
14:03:06,472014.0,0.0,0.0
14:03:06,472096.0,0.0,0.0
14:03:06,472042.0,0.0,0.0
14:03:06,472064.0,0.0,0.0
14:03:06,471936.0,0.0,0.0
14:03:06,471680.0,0.0,0.0
14:03:06,471818.0,0.0,0.0
14:03:06,471926.0,0.0,0.0
14:03:06,471849.0,0.0,0.0
14:03:06,471714.0,0.0,0.0
14:03:06,471604.0,0.0,0.0
14:03:06,471774.0,0.0,0.0
14:03:06,471741.0,0.0,0.0
14:03:06,471789.0,0.0,0.0
14:03:06,471829.0,0.0,0.0
14:03:06,471684.0,0.0,0.0
14:03:06,471619.0,0.0,0.0
14:03:06,471513.0,0.0,0.0
14:03:06,471565.0,0.0,0.0
14:03:06,471344.0,0.0,0.0
14:03:06,471239.0,0.0,0.0
14:03:06,471398.0,0.0,0.0
14:03:06,471288.0,0.0,0.0
14:03:06,471400.0,0.0,0.0
14:03:06,471349.0,0.0,0.0
14:03:06,471117.0,0.0,0.0
14:03:06,471116.0,0.0,0.0
14:03:06,471039.0,0.0,0.0
14:03:06,471029.0,0.0,0.0
14:03:06,471113.0,0.0,0.0
14:03:06,470941.0,0.0,0.0
14:03:06,470938.0,0.0,0.0
14:03:06,470963.0,0.0,0.0
14:03:06,471221.0,0.0,0.0
14:03:06,471293.0,0.0,0.0
14:03:06,471280.0,0.0,0.0
14:03:06,471496.0,0.0,0.0
14:03:06,471431.0,0.0,0.0
14:03:06,471371.0,0.0,0.0
14:03:06,471306.0,0.0,0.0
14:03:06,471034.0,0.0,0.0
14:03:06,470974.0,0.0,0.0
14:03:06,471007.0,0.0,0.0
14:03:06,471276.0,0.0,0.0
14:03:06,471459.0,0.0,0.0
14:03:06,471393.0,0.0,0.0
14:03:06,471304.0,0.0,0.0
14:03:06,471170.0,0.0,0.0
14:03:06,471216.0,0.0,0.0
14:03:06,471160.0,0.0,0.0
14:03:07,470991.0,0.0,0.0
14:03:07,471081.0,0.0,0.0
14:03:07,471190.0,0.0,0.0
14:03:07,471134.0,0.0,0.0
14:03:07,470901.0,0.0,0.0
14:03:07,470726.0,0.0,0.0
14:03:07,470799.0,0.0,0.0
14:03:07,470753.0,0.0,0.0
14:03:07,470642.0,0.0,0.0
14:03:07,470538.0,0.0,0.0
14:03:07,470354.0,0.0,0.0
14:03:07,470446.0,0.0,0.0
14:03:07,470211.0,0.0,0.0
14:03:07,470006.0,0.0,0.0
14:03:07,469992.0,0.0,0.0
14:03:07,469943.0,0.0,0.0
14:03:07,469951.0,0.0,0.0
14:03:07,469872.0,0.0,0.0
14:03:07,469778.0,0.0,0.0
14:03:07,469703.0,0.0,0.0
14:03:07,469656.0,0.0,0.0
14:03:07,469701.0,0.0,0.0
14:03:07,469499.0,0.0,0.0
14:03:07,469571.0,0.0,0.0
14:03:07,469548.0,0.0,0.0
14:03:07,469523.0,0.0,0.0
14:03:07,469653.0,0.0,0.0
14:03:07,469615.0,0.0,0.0
14:03:07,469655.0,0.0,0.0
14:03:07,469676.0,0.0,0.0
14:03:07,469649.0,0.0,0.0
14:03:07,469763.0,0.0,0.0
14:03:07,469579.0,0.0,0.0
14:03:07,469625.0,0.0,0.0
14:03:07,469705.0,0.0,0.0
14:03:07,469759.0,0.0,0.0
14:03:07,470082.0,0.0,0.0
14:03:07,470176.0,0.0,0.0
14:03:07,470218.0,0.0,0.0
14:03:07,470099.0,0.0,0.0
14:03:07,470006.0,0.0,0.0
14:03:07,470266.0,0.0,0.0
14:03:07,470145.0,0.0,0.0
14:03:07,469979.0,0.0,0.0
14:03:07,470218.0,0.0,0.0
14:03:07,470181.0,0.0,0.0
14:03:07,470104.0,0.0,0.0
14:03:07,470080.0,0.0,0.0
14:03:07,470116.0,0.0,0.0
14:03:07,470036.0,0.0,0.0
14:03:07,470070.0,0.0,0.0
14:03:07,470215.0,0.0,0.0
14:03:07,469951.0,0.0,0.0
14:03:07,469801.0,0.0,0.0
14:03:07,469891.0,0.0,0.0
14:03:07,469929.0,0.0,0.0
14:03:07,470028.0,0.0,0.0
14:03:07,469879.0,0.0,0.0
14:03:07,469823.0,0.0,0.0
14:03:07,469649.0,0.0,0.0
14:03:07,469403.0,0.0,0.0
14:03:07,469349.0,0.0,0.0
14:03:07,469140.0,0.0,0.0
14:03:07,469033.0,0.0,0.0
14:03:07,468941.0,0.0,0.0
14:03:07,468784.0,0.0,0.0
14:03:07,468815.0,0.0,0.0
14:03:07,468661.0,0.0,0.0
14:03:07,468638.0,0.0,0.0
14:03:07,468955.0,0.0,0.0
14:03:07,469032.0,0.0,0.0
14:03:07,468831.0,0.0,0.0
14:03:07,468589.0,0.0,0.0
14:03:07,468648.0,0.0,0.0
14:03:07,468520.0,0.0,0.0
14:03:07,468217.0,0.0,0.0
14:03:07,468343.0,0.0,0.0
14:03:07,468557.0,0.0,0.0
14:03:07,468337.0,0.0,0.0
14:03:07,468463.0,0.0,0.0
14:03:07,468369.0,0.0,0.0
14:03:07,468189.0,0.0,0.0
14:03:07,468060.0,0.0,0.0
14:03:07,468039.0,0.0,0.0
14:03:07,467956.0,0.0,0.0
14:03:07,467653.0,0.0,0.0
14:03:07,467946.0,0.0,0.0
14:03:07,468038.0,0.0,0.0
14:03:07,467928.0,0.0,0.0
14:03:07,467851.0,0.0,0.0
14:03:07,467588.0,0.0,0.0
14:03:07,467861.0,0.0,0.0
14:03:07,467992.0,0.0,0.0
14:03:07,468067.0,0.0,0.0
14:03:07,468325.0,0.0,0.0
14:03:07,468368.0,0.0,0.0
14:03:07,468501.0,0.0,0.0
14:03:07,468393.0,0.0,0.0
14:03:07,468452.0,0.0,0.0
14:03:07,468462.0,0.0,0.0
14:03:07,468219.0,0.0,0.0
14:03:07,468186.0,0.0,0.0
14:03:07,468100.0,0.0,0.0
14:03:07,468148.0,0.0,0.0
14:03:07,468111.0,0.0,0.0
14:03:07,467910.0,0.0,0.0
14:03:07,467961.0,0.0,0.0
14:03:07,467850.0,0.0,0.0
14:03:07,467887.0,0.0,0.0
14:03:07,468028.0,0.0,0.0
14:03:07,467908.0,0.0,0.0
14:03:07,467985.0,0.0,0.0
14:03:07,467904.0,0.0,0.0
14:03:07,467688.0,0.0,0.0
14:03:07,467608.0,0.0,0.0
14:03:07,467501.0,0.0,0.0
14:03:07,467474.0,0.0,0.0
14:03:07,467218.0,0.0,0.0
14:03:07,467069.0,0.0,0.0
14:03:07,467017.0,0.0,0.0
14:03:07,466825.0,0.0,0.0
14:03:07,466898.0,0.0,0.0
14:03:07,466800.0,0.0,0.0
14:03:07,466749.0,0.0,0.0
14:03:07,466882.0,0.0,0.0
14:03:08,466896.0,0.0,0.0
14:03:08,467018.0,0.0,0.0
14:03:08,466936.0,0.0,0.0
14:03:08,466906.0,0.0,0.0
14:03:08,466902.0,0.0,0.0
14:03:08,466796.0,0.0,0.0
14:03:08,466881.0,0.0,0.0
14:03:08,466788.0,0.0,0.0
14:03:08,466768.0,0.0,0.0
14:03:08,466749.0,0.0,0.0
14:03:08,466607.0,0.0,0.0
14:03:08,466641.0,0.0,0.0
14:03:08,466533.0,0.0,0.0
14:03:08,466503.0,0.0,0.0
14:03:08,466543.0,0.0,0.0
14:03:08,466417.0,0.0,0.0
14:03:08,466497.0,0.0,0.0
14:03:08,466369.0,0.0,0.0
14:03:08,466341.0,0.0,0.0
14:03:08,466428.0,0.0,0.0
14:03:08,466414.0,0.0,0.0
14:03:08,466664.0,0.0,0.0
14:03:08,466816.0,0.0,0.0
14:03:08,467011.0,0.0,0.0
14:03:08,466938.0,0.0,0.0
14:03:08,466655.0,0.0,0.0
14:03:08,466819.0,0.0,0.0
14:03:08,466885.0,0.0,0.0
14:03:08,467046.0,0.0,0.0
14:03:08,467280.0,0.0,0.0
14:03:08,467267.0,0.0,0.0
14:03:08,467549.0,0.0,0.0
14:03:08,467456.0,0.0,0.0
14:03:08,467373.0,0.0,0.0
14:03:08,467412.0,0.0,0.0
14:03:08,467229.0,0.0,0.0
14:03:08,467199.0,0.0,0.0
14:03:08,467031.0,0.0,0.0
14:03:08,466921.0,0.0,0.0
14:03:08,466908.0,0.0,0.0
14:03:08,466674.0,0.0,0.0
14:03:08,466672.0,0.0,0.0
14:03:08,466525.0,0.0,0.0
14:03:08,466486.0,0.0,0.0
14:03:08,466470.0,0.0,0.0
14:03:08,466233.0,0.0,0.0
14:03:08,466294.0,0.0,0.0
14:03:08,466294.0,0.0,0.0
14:03:08,466279.0,0.0,0.0
14:03:08,466369.0,0.0,0.0
14:03:08,466237.0,0.0,0.0
14:03:08,466308.0,0.0,0.0
14:03:08,466246.0,0.0,0.0
14:03:08,466236.0,0.0,0.0
14:03:08,466296.0,0.0,0.0
14:03:08,466168.0,0.0,0.0
14:03:08,466211.0,0.0,0.0
14:03:08,466104.0,0.0,0.0
14:03:08,466123.0,0.0,0.0
14:03:08,466231.0,0.0,0.0
14:03:08,466053.0,0.0,0.0
14:03:08,466104.0,0.0,0.0
14:03:08,466133.0,0.0,0.0
14:03:08,466158.0,0.0,0.0
14:03:08,466231.0,0.0,0.0
14:03:08,466105.0,0.0,0.0
14:03:08,466162.0,0.0,0.0
14:03:08,466109.0,0.0,0.0
14:03:08,466129.0,0.0,0.0
14:03:08,466178.0,0.0,0.0
14:03:08,466051.0,0.0,0.0
14:03:08,466115.0,0.0,0.0
14:03:08,466054.0,0.0,0.0
14:03:08,466138.0,0.0,0.0
14:03:08,466239.0,0.0,0.0
14:03:08,466172.0,0.0,0.0
14:03:08,466258.0,0.0,0.0
14:03:08,466221.0,0.0,0.0
14:03:08,466394.0,0.0,0.0
14:03:08,466633.0,0.0,0.0
14:03:08,466671.0,0.0,0.0
14:03:08,466853.0,0.0,0.0
14:03:08,466861.0,0.0,0.0
14:03:08,466899.0,0.0,0.0
14:03:08,467004.0,0.0,0.0
14:03:08,466886.0,0.0,0.0
14:03:08,466956.0,0.0,0.0
14:03:08,466869.0,0.0,0.0
14:03:08,466911.0,0.0,0.0
14:03:08,467057.0,0.0,0.0
14:03:08,466954.0,0.0,0.0
14:03:08,467007.0,0.0,0.0
14:03:08,466934.0,0.0,0.0
14:03:08,466893.0,0.0,0.0
14:03:08,467000.0,0.0,0.0
14:03:08,466958.0,0.0,0.0
14:03:08,467213.0,0.0,0.0
14:03:08,467045.0,0.0,0.0
14:03:08,466768.0,0.0,0.0
14:03:08,466754.0,0.0,0.0
14:03:08,466741.0,0.0,0.0
14:03:08,466962.0,0.0,0.0
14:03:08,467064.0,0.0,0.0
14:03:08,467163.0,0.0,0.0
14:03:08,467229.0,0.0,0.0
14:03:08,466941.0,0.0,0.0
14:03:08,466813.0,0.0,0.0
14:03:08,466743.0,0.0,0.0
14:03:08,466830.0,0.0,0.0
14:03:08,467041.0,0.0,0.0
14:03:08,467082.0,0.0,0.0
14:03:08,467254.0,0.0,0.0
14:03:08,467239.0,0.0,0.0
14:03:08,467214.0,0.0,0.0
14:03:08,467329.0,0.0,0.0
14:03:08,467343.0,0.0,0.0
14:03:08,467516.0,0.0,0.0
14:03:08,467473.0,0.0,0.0
14:03:08,467438.0,0.0,0.0
14:03:08,467452.0,0.0,0.0
14:03:08,467266.0,0.0,0.0
14:03:08,467374.0,0.0,0.0
14:03:08,467322.0,0.0,0.0
14:03:08,467365.0,0.0,0.0
14:03:08,467503.0,0.0,0.0
14:03:09,467454.0,0.0,0.0
14:03:09,467719.0,0.0,0.0
14:03:09,467827.0,0.0,0.0
14:03:09,467943.0,0.0,0.0
14:03:09,468132.0,0.0,0.0
14:03:09,468124.0,0.0,0.0
14:03:09,468351.0,0.0,0.0
14:03:09,468336.0,0.0,0.0
14:03:09,468357.0,0.0,0.0
14:03:09,468458.0,0.0,0.0
14:03:09,468389.0,0.0,0.0
14:03:09,468525.0,0.0,0.0
14:03:09,468542.0,0.0,0.0
14:03:09,468599.0,0.0,0.0
14:03:09,468774.0,0.0,0.0
14:03:09,468700.0,0.0,0.0
14:03:09,468809.0,0.0,0.0
14:03:09,468806.0,0.0,0.0
14:03:09,468859.0,0.0,0.0
14:03:09,468988.0,0.0,0.0
14:03:09,468844.0,0.0,0.0
14:03:09,468948.0,0.0,0.0
14:03:09,468973.0,0.0,0.0
14:03:09,469011.0,0.0,0.0
14:03:09,469119.0,0.0,0.0
14:03:09,469026.0,0.0,0.0
14:03:09,469161.0,0.0,0.0
14:03:09,469159.0,0.0,0.0
14:03:09,469196.0,0.0,0.0
14:03:09,469292.0,0.0,0.0
14:03:09,469231.0,0.0,0.0
14:03:09,469451.0,0.0,0.0
14:03:09,469509.0,0.0,0.0
14:03:09,469558.0,0.0,0.0
14:03:09,469739.0,0.0,0.0
14:03:09,469644.0,0.0,0.0
14:03:09,469799.0,0.0,0.0
14:03:09,469809.0,0.0,0.0
14:03:09,469833.0,0.0,0.0
14:03:09,469947.0,0.0,0.0
14:03:09,469929.0,0.0,0.0
14:03:09,470144.0,0.0,0.0
14:03:09,470199.0,0.0,0.0
14:03:09,470314.0,0.0,0.0
14:03:09,470547.0,0.0,0.0
14:03:09,470526.0,0.0,0.0
14:03:09,470731.0,0.0,0.0
14:03:09,470807.0,0.0,0.0
14:03:09,470876.0,0.0,0.0
14:03:09,471068.0,0.0,0.0
14:03:09,471041.0,0.0,0.0
14:03:09,471267.0,0.0,0.0
14:03:09,471340.0,0.0,0.0
14:03:09,471343.0,0.0,0.0
14:03:09,471591.0,0.0,0.0
14:03:09,471670.0,0.0,0.0
14:03:09,471918.0,0.0,0.0
14:03:09,471897.0,0.0,0.0
14:03:09,472041.0,0.0,0.0
14:03:09,472219.0,0.0,0.0
14:03:09,472469.0,0.0,0.0
14:03:09,472699.0,0.0,0.0
14:03:09,472619.0,0.0,0.0
14:03:09,472634.0,0.0,0.0
14:03:09,472894.0,0.0,0.0
14:03:09,472867.0,0.0,0.0
14:03:09,473023.0,0.0,0.0
14:03:09,473049.0,0.0,0.0
14:03:09,473153.0,0.0,0.0
14:03:09,473431.0,0.0,0.0
14:03:09,473427.0,0.0,0.0
14:03:09,473604.0,0.0,0.0
14:03:09,473729.0,0.0,0.0
14:03:09,473781.0,0.0,0.0
14:03:09,473969.0,0.0,0.0
14:03:09,473996.0,0.0,0.0
14:03:09,474234.0,0.0,0.0
14:03:09,474182.0,0.0,0.0
14:03:09,474166.0,0.0,0.0
14:03:09,474338.0,0.0,0.0
14:03:09,474264.0,0.0,0.0
14:03:09,474574.0,0.0,0.0
14:03:09,474721.0,0.0,0.0
14:03:09,474714.0,0.0,0.0
14:03:09,474903.0,0.0,0.0
14:03:09,474916.0,0.0,0.0
14:03:09,475031.0,0.0,0.0
14:03:09,475088.0,0.0,0.0
14:03:09,475098.0,0.0,0.0
14:03:09,475127.0,0.0,0.0
14:03:09,475221.0,0.0,0.0
14:03:09,475536.0,0.0,0.0
14:03:09,475519.0,0.0,0.0
14:03:09,475531.0,0.0,0.0
14:03:09,475631.0,0.0,0.0
14:03:09,475404.0,0.0,0.0
14:03:09,475636.0,0.0,0.0
14:03:09,475860.0,0.0,0.0
14:03:09,475930.0,0.0,0.0
14:03:09,476032.0,0.0,0.0
14:03:09,476007.0,0.0,0.0
14:03:09,476286.0,0.0,0.0
14:03:09,476320.0,0.0,0.0
14:03:09,476189.0,0.0,0.0
14:03:09,476319.0,0.0,0.0
14:03:09,476317.0,0.0,0.0
14:03:09,476443.0,0.0,0.0
14:03:09,476445.0,0.0,0.0
14:03:09,476499.0,0.0,0.0
14:03:09,476636.0,0.0,0.0
14:03:09,476561.0,0.0,0.0
14:03:09,476674.0,0.0,0.0
14:03:09,476643.0,0.0,0.0
14:03:09,476629.0,0.0,0.0
14:03:09,476815.0,0.0,0.0
14:03:09,476700.0,0.0,0.0
14:03:09,476850.0,0.0,0.0
14:03:09,476846.0,0.0,0.0
14:03:09,476839.0,0.0,0.0
14:03:09,476933.0,0.0,0.0
14:03:09,476863.0,0.0,0.0
14:03:09,476968.0,0.0,0.0
14:03:09,476930.0,0.0,0.0
14:03:09,476895.0,0.0,0.0
14:03:09,476963.0,0.0,0.0
14:03:10,476865.0,0.0,0.0
14:03:10,477013.0,0.0,0.0
14:03:10,477001.0,0.0,0.0
14:03:10,476907.0,0.0,0.0
14:03:10,476991.0,0.0,0.0
14:03:10,476878.0,0.0,0.0
14:03:10,477016.0,0.0,0.0
14:03:10,477059.0,0.0,0.0
14:03:10,477139.0,0.0,0.0
14:03:10,477207.0,0.0,0.0
14:03:10,476989.0,0.0,0.0
14:03:10,477049.0,0.0,0.0
14:03:10,477008.0,0.0,0.0
14:03:10,476977.0,0.0,0.0
14:03:10,477083.0,0.0,0.0
14:03:10,476923.0,0.0,0.0
14:03:10,477039.0,0.0,0.0
14:03:10,476981.0,0.0,0.0
14:03:10,476938.0,0.0,0.0
14:03:10,477048.0,0.0,0.0
14:03:10,476928.0,0.0,0.0
14:03:10,477002.0,0.0,0.0
14:03:10,476914.0,0.0,0.0
14:03:10,476861.0,0.0,0.0
14:03:10,476932.0,0.0,0.0
14:03:10,476848.0,0.0,0.0
14:03:10,476950.0,0.0,0.0
14:03:10,476855.0,0.0,0.0
14:03:10,476804.0,0.0,0.0
14:03:10,476873.0,0.0,0.0
14:03:10,476745.0,0.0,0.0
14:03:10,476889.0,0.0,0.0
14:03:10,476859.0,0.0,0.0
14:03:10,476867.0,0.0,0.0
14:03:10,476968.0,0.0,0.0
14:03:10,476806.0,0.0,0.0
14:03:10,476950.0,0.0,0.0
14:03:10,476884.0,0.0,0.0
14:03:10,476884.0,0.0,0.0
14:03:10,476989.0,0.0,0.0
14:03:10,476918.0,0.0,0.0
14:03:10,477078.0,0.0,0.0
14:03:10,476772.0,0.0,0.0
14:03:10,476678.0,0.0,0.0
14:03:10,476856.0,0.0,0.0
14:03:10,476840.0,0.0,0.0
14:03:10,477144.0,0.0,0.0
14:03:10,476946.0,0.0,0.0
14:03:10,476835.0,0.0,0.0
14:03:10,476975.0,0.0,0.0
14:03:10,476865.0,0.0,0.0
14:03:10,476976.0,0.0,0.0
14:03:10,476962.0,0.0,0.0
14:03:10,476992.0,0.0,0.0
14:03:10,477099.0,0.0,0.0
14:03:10,476833.0,0.0,0.0
14:03:10,476829.0,0.0,0.0
14:03:10,476779.0,0.0,0.0
14:03:10,476643.0,0.0,0.0
14:03:10,477026.0,0.0,0.0
14:03:10,477071.0,0.0,0.0
14:03:10,477054.0,0.0,0.0
14:03:10,476881.0,0.0,0.0
14:03:10,476801.0,0.0,0.0
14:03:10,477033.0,0.0,0.0
14:03:10,476928.0,0.0,0.0
14:03:10,476959.0,0.0,0.0
14:03:10,476923.0,0.0,0.0
14:03:10,476879.0,0.0,0.0
14:03:10,476958.0,0.0,0.0
14:03:10,476816.0,0.0,0.0
14:03:10,476923.0,0.0,0.0
14:03:10,476912.0,0.0,0.0
14:03:10,476908.0,0.0,0.0
14:03:10,476982.0,0.0,0.0
14:03:10,476843.0,0.0,0.0
14:03:10,476965.0,0.0,0.0
14:03:10,476989.0,0.0,0.0
14:03:10,476944.0,0.0,0.0
14:03:10,477031.0,0.0,0.0
14:03:10,476971.0,0.0,0.0
14:03:10,477115.0,0.0,0.0
14:03:10,477142.0,0.0,0.0
14:03:10,477054.0,0.0,0.0
14:03:10,477010.0,0.0,0.0
14:03:10,476808.0,0.0,0.0
14:03:10,476861.0,0.0,0.0
14:03:10,476847.0,0.0,0.0
14:03:10,476874.0,0.0,0.0
14:03:10,476952.0,0.0,0.0
14:03:10,476805.0,0.0,0.0
14:03:10,476875.0,0.0,0.0
14:03:10,476879.0,0.0,0.0
14:03:10,476889.0,0.0,0.0
14:03:10,476921.0,0.0,0.0
14:03:10,476760.0,0.0,0.0
14:03:10,476886.0,0.0,0.0
14:03:10,476791.0,0.0,0.0
14:03:10,476752.0,0.0,0.0
14:03:10,476871.0,0.0,0.0
14:03:10,476735.0,0.0,0.0
14:03:10,476786.0,0.0,0.0
14:03:10,476659.0,0.0,0.0
14:03:10,476571.0,0.0,0.0
14:03:10,476567.0,0.0,0.0
14:03:10,476389.0,0.0,0.0
14:03:10,476466.0,0.0,0.0
14:03:10,476424.0,0.0,0.0
14:03:10,476418.0,0.0,0.0
14:03:10,476499.0,0.0,0.0
14:03:10,476325.0,0.0,0.0
14:03:10,476357.0,0.0,0.0
14:03:10,476282.0,0.0,0.0
14:03:10,476226.0,0.0,0.0
14:03:10,476309.0,0.0,0.0
14:03:10,476127.0,0.0,0.0
14:03:10,476167.0,0.0,0.0
14:03:10,476003.0,0.0,0.0
14:03:10,475891.0,0.0,0.0
14:03:10,475949.0,0.0,0.0
14:03:10,475746.0,0.0,0.0
14:03:10,475802.0,0.0,0.0
14:03:10,475698.0,0.0,0.0
14:03:10,475511.0,0.0,0.0
14:03:10,475552.0,0.0,0.0
14:03:11,475380.0,0.0,0.0
14:03:11,475396.0,0.0,0.0
14:03:11,475276.0,0.0,0.0
14:03:11,475173.0,0.0,0.0
14:03:11,475239.0,0.0,0.0
14:03:11,474975.0,0.0,0.0
14:03:11,474932.0,0.0,0.0
14:03:11,474808.0,0.0,0.0
14:03:11,474656.0,0.0,0.0
14:03:11,474689.0,0.0,0.0
14:03:11,474441.0,0.0,0.0
14:03:11,474434.0,0.0,0.0
14:03:11,474358.0,0.0,0.0
14:03:11,474200.0,0.0,0.0
14:03:11,474187.0,0.0,0.0
14:03:11,473933.0,0.0,0.0
14:03:11,473928.0,0.0,0.0
14:03:11,473800.0,0.0,0.0
14:03:11,473694.0,0.0,0.0
14:03:11,473691.0,0.0,0.0
14:03:11,473440.0,0.0,0.0
14:03:11,473407.0,0.0,0.0
14:03:11,473282.0,0.0,0.0
14:03:11,473144.0,0.0,0.0
14:03:11,473101.0,0.0,0.0
14:03:11,472791.0,0.0,0.0
14:03:11,472765.0,0.0,0.0
14:03:11,472601.0,0.0,0.0
14:03:11,472427.0,0.0,0.0
14:03:11,472431.0,0.0,0.0
14:03:11,472253.0,0.0,0.0
14:03:11,472397.0,0.0,0.0
14:03:11,472448.0,0.0,0.0
14:03:11,472463.0,0.0,0.0
14:03:11,472556.0,0.0,0.0
14:03:11,472200.0,0.0,0.0
14:03:11,472065.0,0.0,0.0
14:03:11,471956.0,0.0,0.0
14:03:11,471781.0,0.0,0.0
14:03:11,471788.0,0.0,0.0
14:03:11,471583.0,0.0,0.0
14:03:11,471614.0,0.0,0.0
14:03:11,471541.0,0.0,0.0
14:03:11,471427.0,0.0,0.0
14:03:11,471539.0,0.0,0.0
14:03:11,471349.0,0.0,0.0
14:03:11,471219.0,0.0,0.0
14:03:11,471111.0,0.0,0.0
14:03:11,470904.0,0.0,0.0
14:03:11,470934.0,0.0,0.0
14:03:11,470748.0,0.0,0.0
14:03:11,470709.0,0.0,0.0
14:03:11,470750.0,0.0,0.0
14:03:11,470636.0,0.0,0.0
14:03:11,470653.0,0.0,0.0
14:03:11,470476.0,0.0,0.0
14:03:11,470475.0,0.0,0.0
14:03:11,470457.0,0.0,0.0
14:03:11,470343.0,0.0,0.0
14:03:11,470398.0,0.0,0.0
14:03:11,470226.0,0.0,0.0
14:03:11,470222.0,0.0,0.0
14:03:11,470183.0,0.0,0.0
14:03:11,470081.0,0.0,0.0
14:03:11,470203.0,0.0,0.0
14:03:11,470064.0,0.0,0.0
14:03:11,470076.0,0.0,0.0
14:03:11,470060.0,0.0,0.0
14:03:11,469978.0,0.0,0.0
14:03:11,470111.0,0.0,0.0
14:03:11,470008.0,0.0,0.0
14:03:11,470023.0,0.0,0.0
14:03:11,470013.0,0.0,0.0
14:03:11,469908.0,0.0,0.0
14:03:11,469955.0,0.0,0.0
14:03:11,469807.0,0.0,0.0
14:03:11,469823.0,0.0,0.0
14:03:11,469813.0,0.0,0.0
14:03:11,469726.0,0.0,0.0
14:03:11,469852.0,0.0,0.0
14:03:11,469724.0,0.0,0.0
14:03:11,469744.0,0.0,0.0
14:03:11,469754.0,0.0,0.0
14:03:11,469656.0,0.0,0.0
14:03:11,469764.0,0.0,0.0
14:03:11,469629.0,0.0,0.0
14:03:11,469619.0,0.0,0.0
14:03:11,469596.0,0.0,0.0
14:03:11,469448.0,0.0,0.0
14:03:11,469483.0,0.0,0.0
14:03:11,469335.0,0.0,0.0
14:03:11,469404.0,0.0,0.0
14:03:11,469413.0,0.0,0.0
14:03:11,469268.0,0.0,0.0
14:03:11,469381.0,0.0,0.0
14:03:11,469231.0,0.0,0.0
14:03:11,469213.0,0.0,0.0
14:03:11,469210.0,0.0,0.0
14:03:11,469123.0,0.0,0.0
14:03:11,469205.0,0.0,0.0
14:03:11,469035.0,0.0,0.0
14:03:11,469013.0,0.0,0.0
14:03:11,468995.0,0.0,0.0
14:03:11,468839.0,0.0,0.0
14:03:11,468936.0,0.0,0.0
14:03:11,468765.0,0.0,0.0
14:03:11,468777.0,0.0,0.0
14:03:11,468852.0,0.0,0.0
14:03:11,468866.0,0.0,0.0
14:03:11,469102.0,0.0,0.0
14:03:11,468871.0,0.0,0.0
14:03:11,468721.0,0.0,0.0
14:03:11,468689.0,0.0,0.0
14:03:11,468556.0,0.0,0.0
14:03:11,468614.0,0.0,0.0
14:03:11,468487.0,0.0,0.0
14:03:11,468486.0,0.0,0.0
14:03:11,468439.0,0.0,0.0
14:03:11,468309.0,0.0,0.0
14:03:11,468393.0,0.0,0.0
14:03:11,468278.0,0.0,0.0
14:03:11,468279.0,0.0,0.0
14:03:11,468231.0,0.0,0.0
14:03:11,468089.0,0.0,0.0
14:03:11,468122.0,0.0,0.0
14:03:12,467946.0,0.0,0.0
14:03:12,467963.0,0.0,0.0
14:03:12,467929.0,0.0,0.0
14:03:12,467768.0,0.0,0.0
14:03:12,467777.0,0.0,0.0
14:03:12,467583.0,0.0,0.0
14:03:12,467590.0,0.0,0.0
14:03:12,467613.0,0.0,0.0
14:03:12,467525.0,0.0,0.0
14:03:12,467648.0,0.0,0.0
14:03:12,467535.0,0.0,0.0
14:03:12,467553.0,0.0,0.0
14:03:12,467541.0,0.0,0.0
14:03:12,467414.0,0.0,0.0
14:03:12,467515.0,0.0,0.0
14:03:12,467346.0,0.0,0.0
14:03:12,467284.0,0.0,0.0
14:03:12,467241.0,0.0,0.0
14:03:12,467097.0,0.0,0.0
14:03:12,467111.0,0.0,0.0
14:03:12,466934.0,0.0,0.0
14:03:12,466934.0,0.0,0.0
14:03:12,466911.0,0.0,0.0
14:03:12,466757.0,0.0,0.0
14:03:12,466813.0,0.0,0.0
14:03:12,466641.0,0.0,0.0
14:03:12,466616.0,0.0,0.0
14:03:12,466589.0,0.0,0.0
14:03:12,466420.0,0.0,0.0
14:03:12,466446.0,0.0,0.0
14:03:12,466286.0,0.0,0.0
14:03:12,466236.0,0.0,0.0
14:03:12,466140.0,0.0,0.0
14:03:12,465996.0,0.0,0.0
14:03:12,466023.0,0.0,0.0
14:03:12,465859.0,0.0,0.0
14:03:12,465809.0,0.0,0.0
14:03:12,465744.0,0.0,0.0
14:03:12,465581.0,0.0,0.0
14:03:12,465584.0,0.0,0.0
14:03:12,465403.0,0.0,0.0
14:03:12,465433.0,0.0,0.0
14:03:12,465378.0,0.0,0.0
14:03:12,465176.0,0.0,0.0
14:03:12,465210.0,0.0,0.0
14:03:12,465054.0,0.0,0.0
14:03:12,465116.0,0.0,0.0
14:03:12,465103.0,0.0,0.0
14:03:12,464971.0,0.0,0.0
14:03:12,465022.0,0.0,0.0
14:03:12,464875.0,0.0,0.0
14:03:12,464814.0,0.0,0.0
14:03:12,464720.0,0.0,0.0
14:03:12,464581.0,0.0,0.0
14:03:12,464556.0,0.0,0.0
14:03:12,464333.0,0.0,0.0
14:03:12,464282.0,0.0,0.0
14:03:12,464275.0,0.0,0.0
14:03:12,464268.0,0.0,0.0
14:03:12,464483.0,0.0,0.0
14:03:12,464199.0,0.0,0.0
14:03:12,463944.0,0.0,0.0
14:03:12,463798.0,0.0,0.0
14:03:12,463676.0,0.0,0.0
14:03:12,463713.0,0.0,0.0
14:03:12,463630.0,0.0,0.0
14:03:12,463604.0,0.0,0.0
14:03:12,463567.0,0.0,0.0
14:03:12,463378.0,0.0,0.0
14:03:12,463409.0,0.0,0.0
14:03:12,463329.0,0.0,0.0
14:03:12,463379.0,0.0,0.0
14:03:12,463364.0,0.0,0.0
14:03:12,463160.0,0.0,0.0
14:03:12,463223.0,0.0,0.0
14:03:12,463072.0,0.0,0.0
14:03:12,463083.0,0.0,0.0
14:03:12,463113.0,0.0,0.0
14:03:12,463025.0,0.0,0.0
14:03:12,463105.0,0.0,0.0
14:03:12,462984.0,0.0,0.0
14:03:12,463029.0,0.0,0.0
14:03:12,463038.0,0.0,0.0
14:03:12,462953.0,0.0,0.0
14:03:12,463037.0,0.0,0.0
14:03:12,462939.0,0.0,0.0
14:03:12,462971.0,0.0,0.0
14:03:12,462993.0,0.0,0.0
14:03:12,462905.0,0.0,0.0
14:03:12,463019.0,0.0,0.0
14:03:12,462969.0,0.0,0.0
14:03:12,463034.0,0.0,0.0
14:03:12,463085.0,0.0,0.0
14:03:12,462997.0,0.0,0.0
14:03:12,463090.0,0.0,0.0
14:03:12,462989.0,0.0,0.0
14:03:12,463078.0,0.0,0.0
14:03:12,463149.0,0.0,0.0
14:03:12,463059.0,0.0,0.0
14:03:12,463179.0,0.0,0.0
14:03:12,463095.0,0.0,0.0
14:03:12,463127.0,0.0,0.0
14:03:12,463194.0,0.0,0.0
14:03:12,463136.0,0.0,0.0
14:03:12,463305.0,0.0,0.0
14:03:12,463235.0,0.0,0.0
14:03:12,463293.0,0.0,0.0
14:03:12,463355.0,0.0,0.0
14:03:12,463310.0,0.0,0.0
14:03:12,463465.0,0.0,0.0
14:03:12,463448.0,0.0,0.0
14:03:12,463543.0,0.0,0.0
14:03:12,463612.0,0.0,0.0
14:03:12,463577.0,0.0,0.0
14:03:12,463693.0,0.0,0.0
14:03:12,463588.0,0.0,0.0
14:03:12,463638.0,0.0,0.0
14:03:12,463747.0,0.0,0.0
14:03:12,463708.0,0.0,0.0
14:03:12,463912.0,0.0,0.0
14:03:12,463873.0,0.0,0.0
14:03:12,463926.0,0.0,0.0
14:03:12,464079.0,0.0,0.0
14:03:12,464046.0,0.0,0.0
14:03:12,464176.0,0.0,0.0
14:03:13,464165.0,0.0,0.0
14:03:13,464274.0,0.0,0.0
14:03:13,464383.0,0.0,0.0
14:03:13,464285.0,0.0,0.0
14:03:13,464433.0,0.0,0.0
14:03:13,464396.0,0.0,0.0
14:03:13,464475.0,0.0,0.0
14:03:13,464693.0,0.0,0.0
14:03:13,464798.0,0.0,0.0
14:03:13,465079.0,0.0,0.0
14:03:13,465039.0,0.0,0.0
14:03:13,464914.0,0.0,0.0
14:03:13,464908.0,0.0,0.0
14:03:13,464911.0,0.0,0.0
14:03:13,465168.0,0.0,0.0
14:03:13,465283.0,0.0,0.0
14:03:13,465428.0,0.0,0.0
14:03:13,465533.0,0.0,0.0
14:03:13,465513.0,0.0,0.0
14:03:13,465714.0,0.0,0.0
14:03:13,465741.0,0.0,0.0
14:03:13,465784.0,0.0,0.0
14:03:13,465891.0,0.0,0.0
14:03:13,465877.0,0.0,0.0
14:03:13,466038.0,0.0,0.0
14:03:13,466067.0,0.0,0.0
14:03:13,466149.0,0.0,0.0
14:03:13,466263.0,0.0,0.0
14:03:13,466243.0,0.0,0.0
14:03:13,466424.0,0.0,0.0
14:03:13,466423.0,0.0,0.0
14:03:13,466458.0,0.0,0.0
14:03:13,466569.0,0.0,0.0
14:03:13,466565.0,0.0,0.0
14:03:13,466754.0,0.0,0.0
14:03:13,466819.0,0.0,0.0
14:03:13,466921.0,0.0,0.0
14:03:13,467096.0,0.0,0.0
14:03:13,467117.0,0.0,0.0
14:03:13,467344.0,0.0,0.0
14:03:13,467418.0,0.0,0.0
14:03:13,467615.0,0.0,0.0
14:03:13,467798.0,0.0,0.0
14:03:13,467843.0,0.0,0.0
14:03:13,468054.0,0.0,0.0
14:03:13,468109.0,0.0,0.0
14:03:13,468233.0,0.0,0.0
14:03:13,468333.0,0.0,0.0
14:03:13,468339.0,0.0,0.0
14:03:13,468578.0,0.0,0.0
14:03:13,468560.0,0.0,0.0
14:03:13,468640.0,0.0,0.0
14:03:13,468716.0,0.0,0.0
14:03:13,468693.0,0.0,0.0
14:03:13,468909.0,0.0,0.0
14:03:13,468913.0,0.0,0.0
14:03:13,469025.0,0.0,0.0
14:03:13,469167.0,0.0,0.0
14:03:13,469138.0,0.0,0.0
14:03:13,469306.0,0.0,0.0
14:03:13,469333.0,0.0,0.0
14:03:13,469488.0,0.0,0.0
14:03:13,469635.0,0.0,0.0
14:03:13,469630.0,0.0,0.0
14:03:13,469815.0,0.0,0.0
14:03:13,469762.0,0.0,0.0
14:03:13,469838.0,0.0,0.0
14:03:13,469904.0,0.0,0.0
14:03:13,469881.0,0.0,0.0
14:03:13,470095.0,0.0,0.0
14:03:13,470113.0,0.0,0.0
14:03:13,470197.0,0.0,0.0
14:03:13,470266.0,0.0,0.0
14:03:13,470221.0,0.0,0.0
14:03:13,470382.0,0.0,0.0
14:03:13,470316.0,0.0,0.0
14:03:13,470389.0,0.0,0.0
14:03:13,470453.0,0.0,0.0
14:03:13,470426.0,0.0,0.0
14:03:13,470596.0,0.0,0.0
14:03:13,470486.0,0.0,0.0
14:03:13,470609.0,0.0,0.0
14:03:13,470657.0,0.0,0.0
14:03:13,470694.0,0.0,0.0
14:03:13,470894.0,0.0,0.0
14:03:13,470893.0,0.0,0.0
14:03:13,470856.0,0.0,0.0
14:03:13,470743.0,0.0,0.0
14:03:13,470658.0,0.0,0.0
14:03:13,470839.0,0.0,0.0
14:03:13,470879.0,0.0,0.0
14:03:13,470986.0,0.0,0.0
14:03:13,471042.0,0.0,0.0
14:03:13,470996.0,0.0,0.0
14:03:13,471118.0,0.0,0.0
14:03:13,471049.0,0.0,0.0
14:03:13,471120.0,0.0,0.0
14:03:13,471189.0,0.0,0.0
14:03:13,471090.0,0.0,0.0
14:03:13,471246.0,0.0,0.0
14:03:13,471207.0,0.0,0.0
14:03:13,471268.0,0.0,0.0
14:03:13,471352.0,0.0,0.0
14:03:13,471283.0,0.0,0.0
14:03:13,471483.0,0.0,0.0
14:03:13,471398.0,0.0,0.0
14:03:13,471468.0,0.0,0.0
14:03:13,471496.0,0.0,0.0
14:03:13,471398.0,0.0,0.0
14:03:13,471528.0,0.0,0.0
14:03:13,471475.0,0.0,0.0
14:03:13,471548.0,0.0,0.0
14:03:13,471636.0,0.0,0.0
14:03:13,471573.0,0.0,0.0
14:03:13,471721.0,0.0,0.0
14:03:13,471689.0,0.0,0.0
14:03:13,471800.0,0.0,0.0
14:03:13,471950.0,0.0,0.0
14:03:13,471772.0,0.0,0.0
14:03:13,472119.0,0.0,0.0
14:03:13,472494.0,0.0,0.0
14:03:13,472541.0,0.0,0.0
14:03:13,472624.0,0.0,0.0
14:03:13,472628.0,0.0,0.0
14:03:13,472846.0,0.0,0.0
14:03:14,472914.0,0.0,0.0
14:03:14,472934.0,0.0,0.0
14:03:14,473108.0,0.0,0.0
14:03:14,473174.0,0.0,0.0
14:03:14,473469.0,0.0,0.0
14:03:14,473508.0,0.0,0.0
14:03:14,473609.0,0.0,0.0
14:03:14,473704.0,0.0,0.0
14:03:14,473667.0,0.0,0.0
14:03:14,473798.0,0.0,0.0
14:03:14,473736.0,0.0,0.0
14:03:14,473841.0,0.0,0.0
14:03:14,473930.0,0.0,0.0
14:03:14,473922.0,0.0,0.0
14:03:14,474055.0,0.0,0.0
14:03:14,473951.0,0.0,0.0
14:03:14,473954.0,0.0,0.0
14:03:14,473943.0,0.0,0.0
14:03:14,473819.0,0.0,0.0
14:03:14,473904.0,0.0,0.0
14:03:14,473789.0,0.0,0.0
14:03:14,473829.0,0.0,0.0
14:03:14,473829.0,0.0,0.0
14:03:14,473750.0,0.0,0.0
14:03:14,473835.0,0.0,0.0
14:03:14,473683.0,0.0,0.0
14:03:14,473683.0,0.0,0.0
14:03:14,473602.0,0.0,0.0
14:03:14,473407.0,0.0,0.0
14:03:14,473371.0,0.0,0.0
14:03:14,473101.0,0.0,0.0
14:03:14,473042.0,0.0,0.0
14:03:14,473074.0,0.0,0.0
14:03:14,473046.0,0.0,0.0
14:03:14,473169.0,0.0,0.0
14:03:14,472939.0,0.0,0.0
14:03:14,472774.0,0.0,0.0
14:03:14,472636.0,0.0,0.0
14:03:14,472446.0,0.0,0.0
14:03:14,472529.0,0.0,0.0
14:03:14,472369.0,0.0,0.0
14:03:14,472361.0,0.0,0.0
14:03:14,472322.0,0.0,0.0
14:03:14,472178.0,0.0,0.0
14:03:14,472269.0,0.0,0.0
14:03:14,472123.0,0.0,0.0
14:03:14,472079.0,0.0,0.0
14:03:14,472037.0,0.0,0.0
14:03:14,471808.0,0.0,0.0
14:03:14,471794.0,0.0,0.0
14:03:14,471640.0,0.0,0.0
14:03:14,471708.0,0.0,0.0
14:03:14,471742.0,0.0,0.0
14:03:14,471618.0,0.0,0.0
14:03:14,471691.0,0.0,0.0
14:03:14,471488.0,0.0,0.0
14:03:14,471477.0,0.0,0.0
14:03:14,471509.0,0.0,0.0
14:03:14,471419.0,0.0,0.0
14:03:14,471426.0,0.0,0.0
14:03:14,471218.0,0.0,0.0
14:03:14,471307.0,0.0,0.0
14:03:14,471496.0,0.0,0.0
14:03:14,471511.0,0.0,0.0
14:03:14,471499.0,0.0,0.0
14:03:14,471322.0,0.0,0.0
14:03:14,471416.0,0.0,0.0
14:03:14,471518.0,0.0,0.0
14:03:14,471469.0,0.0,0.0
14:03:14,471578.0,0.0,0.0
14:03:14,471431.0,0.0,0.0
14:03:14,471391.0,0.0,0.0
14:03:14,471336.0,0.0,0.0
14:03:14,471219.0,0.0,0.0
14:03:14,471381.0,0.0,0.0
14:03:14,471308.0,0.0,0.0
14:03:14,471376.0,0.0,0.0
14:03:14,471422.0,0.0,0.0
14:03:14,471301.0,0.0,0.0
14:03:14,471491.0,0.0,0.0
14:03:14,471444.0,0.0,0.0
14:03:14,471506.0,0.0,0.0
14:03:14,471522.0,0.0,0.0
14:03:14,471383.0,0.0,0.0
14:03:14,471450.0,0.0,0.0
14:03:14,471356.0,0.0,0.0
14:03:14,471341.0,0.0,0.0
14:03:14,471379.0,0.0,0.0
14:03:14,471262.0,0.0,0.0
14:03:14,471369.0,0.0,0.0
14:03:14,471346.0,0.0,0.0
14:03:14,471419.0,0.0,0.0
14:03:14,471483.0,0.0,0.0
14:03:14,471359.0,0.0,0.0
14:03:14,471493.0,0.0,0.0
14:03:14,471444.0,0.0,0.0
14:03:14,471408.0,0.0,0.0
14:03:14,471365.0,0.0,0.0
14:03:14,471091.0,0.0,0.0
14:03:14,471057.0,0.0,0.0
14:03:14,471038.0,0.0,0.0
14:03:14,471076.0,0.0,0.0
14:03:14,471104.0,0.0,0.0
14:03:14,470951.0,0.0,0.0
14:03:14,471062.0,0.0,0.0
14:03:14,471086.0,0.0,0.0
14:03:14,471159.0,0.0,0.0
14:03:14,471258.0,0.0,0.0
14:03:14,470996.0,0.0,0.0
14:03:14,471030.0,0.0,0.0
14:03:14,470984.0,0.0,0.0
14:03:14,471017.0,0.0,0.0
14:03:14,471067.0,0.0,0.0
14:03:14,470939.0,0.0,0.0
14:03:14,471031.0,0.0,0.0
14:03:14,470961.0,0.0,0.0
14:03:14,470988.0,0.0,0.0
14:03:14,471077.0,0.0,0.0
14:03:14,471082.0,0.0,0.0
14:03:14,471278.0,0.0,0.0
14:03:14,471251.0,0.0,0.0
14:03:14,471233.0,0.0,0.0
14:03:14,471343.0,0.0,0.0
14:03:14,471363.0,0.0,0.0
14:03:14,471614.0,0.0,0.0
14:03:15,471550.0,0.0,0.0
14:03:15,471477.0,0.0,0.0
14:03:15,471496.0,0.0,0.0
14:03:15,471614.0,0.0,0.0
14:03:15,471831.0,0.0,0.0
14:03:15,471810.0,0.0,0.0
14:03:15,471874.0,0.0,0.0
14:03:15,471966.0,0.0,0.0
14:03:15,471951.0,0.0,0.0
14:03:15,472181.0,0.0,0.0
14:03:15,472234.0,0.0,0.0
14:03:15,472336.0,0.0,0.0
14:03:15,472414.0,0.0,0.0
14:03:15,472401.0,0.0,0.0
14:03:15,472637.0,0.0,0.0
14:03:15,472565.0,0.0,0.0
14:03:15,472646.0,0.0,0.0
14:03:15,472989.0,0.0,0.0
14:03:15,473101.0,0.0,0.0
14:03:15,473306.0,0.0,0.0
14:03:15,473233.0,0.0,0.0
14:03:15,473188.0,0.0,0.0
14:03:15,473340.0,0.0,0.0
14:03:15,473285.0,0.0,0.0
14:03:15,473400.0,0.0,0.0
14:03:15,473373.0,0.0,0.0
14:03:15,473447.0,0.0,0.0
14:03:15,473604.0,0.0,0.0
14:03:15,473467.0,0.0,0.0
14:03:15,473614.0,0.0,0.0
14:03:15,473643.0,0.0,0.0
14:03:15,473651.0,0.0,0.0
14:03:15,473972.0,0.0,0.0
14:03:15,473881.0,0.0,0.0
14:03:15,473821.0,0.0,0.0
14:03:15,473709.0,0.0,0.0
14:03:15,473628.0,0.0,0.0
14:03:15,473786.0,0.0,0.0
14:03:15,473711.0,0.0,0.0
14:03:15,473858.0,0.0,0.0
14:03:15,473790.0,0.0,0.0
14:03:15,473798.0,0.0,0.0
14:03:15,474031.0,0.0,0.0
14:03:15,473772.0,0.0,0.0
14:03:15,473842.0,0.0,0.0
14:03:15,473918.0,0.0,0.0
14:03:15,474032.0,0.0,0.0
14:03:15,474058.0,0.0,0.0
14:03:15,473763.0,0.0,0.0
14:03:15,473721.0,0.0,0.0
14:03:15,473601.0,0.0,0.0
14:03:15,473679.0,0.0,0.0
14:03:15,473801.0,0.0,0.0
14:03:15,473681.0,0.0,0.0
14:03:15,473675.0,0.0,0.0
14:03:15,473521.0,0.0,0.0
14:03:15,473366.0,0.0,0.0
14:03:15,473297.0,0.0,0.0
14:03:15,473074.0,0.0,0.0
14:03:15,473207.0,0.0,0.0
14:03:15,472946.0,0.0,0.0
14:03:15,472820.0,0.0,0.0
14:03:15,472829.0,0.0,0.0
14:03:15,472562.0,0.0,0.0
14:03:15,472641.0,0.0,0.0
14:03:15,472536.0,0.0,0.0
14:03:15,472478.0,0.0,0.0
14:03:15,472481.0,0.0,0.0
14:03:15,472252.0,0.0,0.0
14:03:15,472259.0,0.0,0.0
14:03:15,472081.0,0.0,0.0
14:03:15,471939.0,0.0,0.0
14:03:15,471941.0,0.0,0.0
14:03:15,471700.0,0.0,0.0
14:03:15,471744.0,0.0,0.0
14:03:15,471737.0,0.0,0.0
14:03:15,471635.0,0.0,0.0
14:03:15,471609.0,0.0,0.0
14:03:15,471470.0,0.0,0.0
14:03:15,471597.0,0.0,0.0
14:03:15,471536.0,0.0,0.0
14:03:15,471478.0,0.0,0.0
14:03:15,471564.0,0.0,0.0
14:03:15,471334.0,0.0,0.0
14:03:15,471329.0,0.0,0.0
14:03:15,471358.0,0.0,0.0
14:03:15,471313.0,0.0,0.0
14:03:15,471393.0,0.0,0.0
14:03:15,471190.0,0.0,0.0
14:03:15,471289.0,0.0,0.0
14:03:15,471268.0,0.0,0.0
14:03:15,471248.0,0.0,0.0
14:03:15,471371.0,0.0,0.0
14:03:15,471179.0,0.0,0.0
14:03:15,471229.0,0.0,0.0
14:03:15,471131.0,0.0,0.0
14:03:15,471011.0,0.0,0.0
14:03:15,471160.0,0.0,0.0
14:03:15,471081.0,0.0,0.0
14:03:15,471202.0,0.0,0.0
14:03:15,471175.0,0.0,0.0
14:03:15,471039.0,0.0,0.0
14:03:15,471146.0,0.0,0.0
14:03:15,471058.0,0.0,0.0
14:03:15,471137.0,0.0,0.0
14:03:15,471078.0,0.0,0.0
14:03:15,471021.0,0.0,0.0
14:03:15,471114.0,0.0,0.0
14:03:15,470993.0,0.0,0.0
14:03:15,470991.0,0.0,0.0
14:03:15,470956.0,0.0,0.0
14:03:15,470916.0,0.0,0.0
14:03:15,471073.0,0.0,0.0
14:03:15,470911.0,0.0,0.0
14:03:15,470988.0,0.0,0.0
14:03:15,470932.0,0.0,0.0
14:03:15,470813.0,0.0,0.0
14:03:15,470883.0,0.0,0.0
14:03:15,470734.0,0.0,0.0
14:03:15,470788.0,0.0,0.0
14:03:15,470699.0,0.0,0.0
14:03:15,470612.0,0.0,0.0
14:03:15,470752.0,0.0,0.0
14:03:15,470700.0,0.0,0.0
14:03:15,470906.0,0.0,0.0
14:03:16,470837.0,0.0,0.0
14:03:16,470583.0,0.0,0.0
14:03:16,470538.0,0.0,0.0
14:03:16,470373.0,0.0,0.0
14:03:16,470363.0,0.0,0.0
14:03:16,470304.0,0.0,0.0
14:03:16,470214.0,0.0,0.0
14:03:16,470241.0,0.0,0.0
14:03:16,470038.0,0.0,0.0
14:03:16,469951.0,0.0,0.0
14:03:16,469756.0,0.0,0.0
14:03:16,469591.0,0.0,0.0
14:03:16,469562.0,0.0,0.0
14:03:16,469400.0,0.0,0.0
14:03:16,469416.0,0.0,0.0
14:03:16,469320.0,0.0,0.0
14:03:16,469171.0,0.0,0.0
14:03:16,469223.0,0.0,0.0
14:03:16,469086.0,0.0,0.0
14:03:16,469045.0,0.0,0.0
14:03:16,468952.0,0.0,0.0
14:03:16,468884.0,0.0,0.0
14:03:16,468983.0,0.0,0.0
14:03:16,468823.0,0.0,0.0
14:03:16,468796.0,0.0,0.0
14:03:16,468733.0,0.0,0.0
14:03:16,468649.0,0.0,0.0
14:03:16,468629.0,0.0,0.0
14:03:16,468408.0,0.0,0.0
14:03:16,468428.0,0.0,0.0
14:03:16,468309.0,0.0,0.0
14:03:16,468216.0,0.0,0.0
14:03:16,468218.0,0.0,0.0
14:03:16,468051.0,0.0,0.0
14:03:16,468099.0,0.0,0.0
14:03:16,467961.0,0.0,0.0
14:03:16,467880.0,0.0,0.0
14:03:16,467887.0,0.0,0.0
14:03:16,467731.0,0.0,0.0
14:03:16,467763.0,0.0,0.0
14:03:16,467619.0,0.0,0.0
14:03:16,467479.0,0.0,0.0
14:03:16,467333.0,0.0,0.0
14:03:16,467134.0,0.0,0.0
14:03:16,467171.0,0.0,0.0
14:03:16,467013.0,0.0,0.0
14:03:16,466964.0,0.0,0.0
14:03:16,467033.0,0.0,0.0
14:03:16,466908.0,0.0,0.0
14:03:16,466989.0,0.0,0.0
14:03:16,466834.0,0.0,0.0
14:03:16,466711.0,0.0,0.0
14:03:16,466745.0,0.0,0.0
14:03:16,466608.0,0.0,0.0
14:03:16,466714.0,0.0,0.0
14:03:16,466648.0,0.0,0.0
14:03:16,466623.0,0.0,0.0
14:03:16,466767.0,0.0,0.0
14:03:16,466679.0,0.0,0.0
14:03:16,466761.0,0.0,0.0
14:03:16,466731.0,0.0,0.0
14:03:16,466631.0,0.0,0.0
14:03:16,466611.0,0.0,0.0
14:03:16,466328.0,0.0,0.0
14:03:16,466318.0,0.0,0.0
14:03:16,466156.0,0.0,0.0
14:03:16,465981.0,0.0,0.0
14:03:16,465999.0,0.0,0.0
14:03:16,465776.0,0.0,0.0
14:03:16,465755.0,0.0,0.0
14:03:16,465763.0,0.0,0.0
14:03:16,465850.0,0.0,0.0
14:03:16,466139.0,0.0,0.0
14:03:16,465965.0,0.0,0.0
14:03:16,465794.0,0.0,0.0
14:03:16,465695.0,0.0,0.0
14:03:16,465586.0,0.0,0.0
14:03:16,465651.0,0.0,0.0
14:03:16,465546.0,0.0,0.0
14:03:16,465609.0,0.0,0.0
14:03:16,465579.0,0.0,0.0
14:03:16,465551.0,0.0,0.0
14:03:16,465618.0,0.0,0.0
14:03:16,465479.0,0.0,0.0
14:03:16,465514.0,0.0,0.0
14:03:16,465457.0,0.0,0.0
14:03:16,465339.0,0.0,0.0
14:03:16,465433.0,0.0,0.0
14:03:16,465333.0,0.0,0.0
14:03:16,465366.0,0.0,0.0
14:03:16,465327.0,0.0,0.0
14:03:16,465224.0,0.0,0.0
14:03:16,465279.0,0.0,0.0
14:03:16,465131.0,0.0,0.0
14:03:16,465166.0,0.0,0.0
14:03:16,465130.0,0.0,0.0
14:03:16,465007.0,0.0,0.0
14:03:16,465069.0,0.0,0.0
14:03:16,464918.0,0.0,0.0
14:03:16,464959.0,0.0,0.0
14:03:16,464906.0,0.0,0.0
14:03:16,464872.0,0.0,0.0
14:03:16,464972.0,0.0,0.0
14:03:16,464822.0,0.0,0.0
14:03:16,464906.0,0.0,0.0
14:03:16,464875.0,0.0,0.0
14:03:16,464766.0,0.0,0.0
14:03:16,464828.0,0.0,0.0
14:03:16,464688.0,0.0,0.0
14:03:16,464722.0,0.0,0.0
14:03:16,464658.0,0.0,0.0
14:03:16,464559.0,0.0,0.0
14:03:16,464574.0,0.0,0.0
14:03:16,464434.0,0.0,0.0
14:03:16,464504.0,0.0,0.0
14:03:16,464451.0,0.0,0.0
14:03:16,464340.0,0.0,0.0
14:03:16,464372.0,0.0,0.0
14:03:16,464183.0,0.0,0.0
14:03:16,464252.0,0.0,0.0
14:03:16,464212.0,0.0,0.0
14:03:16,464141.0,0.0,0.0
14:03:16,464242.0,0.0,0.0
14:03:16,464094.0,0.0,0.0
14:03:16,464114.0,0.0,0.0
14:03:17,464061.0,0.0,0.0
14:03:17,463970.0,0.0,0.0
14:03:17,464055.0,0.0,0.0
14:03:17,463906.0,0.0,0.0
14:03:17,463936.0,0.0,0.0
14:03:17,463903.0,0.0,0.0
14:03:17,463808.0,0.0,0.0
14:03:17,463894.0,0.0,0.0
14:03:17,463806.0,0.0,0.0
14:03:17,463903.0,0.0,0.0
14:03:17,463914.0,0.0,0.0
14:03:17,463905.0,0.0,0.0
14:03:17,464023.0,0.0,0.0
14:03:17,463898.0,0.0,0.0
14:03:17,463974.0,0.0,0.0
14:03:17,463943.0,0.0,0.0
14:03:17,463859.0,0.0,0.0
14:03:17,463962.0,0.0,0.0
14:03:17,463974.0,0.0,0.0
14:03:17,464235.0,0.0,0.0
14:03:17,464391.0,0.0,0.0
14:03:17,464229.0,0.0,0.0
14:03:17,464188.0,0.0,0.0
14:03:17,464046.0,0.0,0.0
14:03:17,464118.0,0.0,0.0
14:03:17,464153.0,0.0,0.0
14:03:17,464126.0,0.0,0.0
14:03:17,464244.0,0.0,0.0
14:03:17,464160.0,0.0,0.0
14:03:17,464233.0,0.0,0.0
14:03:17,464243.0,0.0,0.0
14:03:17,464139.0,0.0,0.0
14:03:17,464193.0,0.0,0.0
14:03:17,464044.0,0.0,0.0
14:03:17,464071.0,0.0,0.0
14:03:17,464058.0,0.0,0.0
14:03:17,463977.0,0.0,0.0
14:03:17,464061.0,0.0,0.0
14:03:17,463929.0,0.0,0.0
14:03:17,463982.0,0.0,0.0
14:03:17,463993.0,0.0,0.0
14:03:17,463928.0,0.0,0.0
14:03:17,464026.0,0.0,0.0
14:03:17,463897.0,0.0,0.0
14:03:17,463961.0,0.0,0.0
14:03:17,463907.0,0.0,0.0
14:03:17,463795.0,0.0,0.0
14:03:17,463853.0,0.0,0.0
14:03:17,463678.0,0.0,0.0
14:03:17,463678.0,0.0,0.0
14:03:17,463650.0,0.0,0.0
14:03:17,463528.0,0.0,0.0
14:03:17,463598.0,0.0,0.0
14:03:17,463427.0,0.0,0.0
14:03:17,463455.0,0.0,0.0
14:03:17,463469.0,0.0,0.0
14:03:17,463362.0,0.0,0.0
14:03:17,463446.0,0.0,0.0
14:03:17,463342.0,0.0,0.0
14:03:17,463419.0,0.0,0.0
14:03:17,463387.0,0.0,0.0
14:03:17,463262.0,0.0,0.0
14:03:17,463364.0,0.0,0.0
14:03:17,463251.0,0.0,0.0
14:03:17,463287.0,0.0,0.0
14:03:17,463250.0,0.0,0.0
14:03:17,463144.0,0.0,0.0
14:03:17,463193.0,0.0,0.0
14:03:17,463027.0,0.0,0.0
14:03:17,463080.0,0.0,0.0
14:03:17,463050.0,0.0,0.0
14:03:17,462966.0,0.0,0.0
14:03:17,463066.0,0.0,0.0
14:03:17,462924.0,0.0,0.0
14:03:17,462967.0,0.0,0.0
14:03:17,462960.0,0.0,0.0
14:03:17,462889.0,0.0,0.0
14:03:17,462998.0,0.0,0.0
14:03:17,462865.0,0.0,0.0
14:03:17,462917.0,0.0,0.0
14:03:17,462901.0,0.0,0.0
14:03:17,462807.0,0.0,0.0
14:03:17,462940.0,0.0,0.0
14:03:17,462827.0,0.0,0.0
14:03:17,462911.0,0.0,0.0
14:03:17,462888.0,0.0,0.0
14:03:17,462803.0,0.0,0.0
14:03:17,462923.0,0.0,0.0
14:03:17,462776.0,0.0,0.0
14:03:17,462843.0,0.0,0.0
14:03:17,462876.0,0.0,0.0
14:03:17,462762.0,0.0,0.0
14:03:17,462819.0,0.0,0.0
14:03:17,462708.0,0.0,0.0
14:03:17,462915.0,0.0,0.0
14:03:17,463088.0,0.0,0.0
14:03:17,463129.0,0.0,0.0
14:03:17,463155.0,0.0,0.0
14:03:17,462875.0,0.0,0.0
14:03:17,462886.0,0.0,0.0
14:03:17,462869.0,0.0,0.0
14:03:17,462840.0,0.0,0.0
14:03:17,463001.0,0.0,0.0
14:03:17,462915.0,0.0,0.0
14:03:17,463020.0,0.0,0.0
14:03:17,463069.0,0.0,0.0
14:03:17,462971.0,0.0,0.0
14:03:17,463067.0,0.0,0.0
14:03:17,462914.0,0.0,0.0
14:03:17,463001.0,0.0,0.0
14:03:17,463046.0,0.0,0.0
14:03:17,462981.0,0.0,0.0
14:03:17,463126.0,0.0,0.0
14:03:17,463004.0,0.0,0.0
14:03:17,463056.0,0.0,0.0
14:03:17,463073.0,0.0,0.0
14:03:17,463014.0,0.0,0.0
14:03:17,463149.0,0.0,0.0
14:03:17,463064.0,0.0,0.0
14:03:17,463158.0,0.0,0.0
14:03:17,463217.0,0.0,0.0
14:03:17,463134.0,0.0,0.0
14:03:17,463256.0,0.0,0.0
14:03:17,463208.0,0.0,0.0
14:03:17,463298.0,0.0,0.0
14:03:18,463384.0,0.0,0.0
14:03:18,463330.0,0.0,0.0
14:03:18,463469.0,0.0,0.0
14:03:18,463394.0,0.0,0.0
14:03:18,463525.0,0.0,0.0
14:03:18,463573.0,0.0,0.0
14:03:18,463483.0,0.0,0.0
14:03:18,463676.0,0.0,0.0
14:03:18,463586.0,0.0,0.0
14:03:18,463553.0,0.0,0.0
14:03:18,463593.0,0.0,0.0
14:03:18,463505.0,0.0,0.0
14:03:18,463584.0,0.0,0.0
14:03:18,463501.0,0.0,0.0
14:03:18,463538.0,0.0,0.0
14:03:18,463513.0,0.0,0.0
14:03:18,463386.0,0.0,0.0
14:03:18,463483.0,0.0,0.0
14:03:18,463407.0,0.0,0.0
14:03:18,463491.0,0.0,0.0
14:03:18,463559.0,0.0,0.0
14:03:18,463482.0,0.0,0.0
14:03:18,463581.0,0.0,0.0
14:03:18,463581.0,0.0,0.0
14:03:18,463739.0,0.0,0.0
14:03:18,463871.0,0.0,0.0
14:03:18,463908.0,0.0,0.0
14:03:18,464076.0,0.0,0.0
14:03:18,464018.0,0.0,0.0
14:03:18,464141.0,0.0,0.0
14:03:18,464256.0,0.0,0.0
14:03:18,464259.0,0.0,0.0
14:03:18,464433.0,0.0,0.0
14:03:18,464413.0,0.0,0.0
14:03:18,464538.0,0.0,0.0
14:03:18,464609.0,0.0,0.0
14:03:18,464526.0,0.0,0.0
14:03:18,464672.0,0.0,0.0
14:03:18,464648.0,0.0,0.0
14:03:18,464763.0,0.0,0.0
14:03:18,464830.0,0.0,0.0
14:03:18,464794.0,0.0,0.0
14:03:18,465008.0,0.0,0.0
14:03:18,464958.0,0.0,0.0
14:03:18,465057.0,0.0,0.0
14:03:18,465113.0,0.0,0.0
14:03:18,465021.0,0.0,0.0
14:03:18,465146.0,0.0,0.0
14:03:18,465139.0,0.0,0.0
14:03:18,465404.0,0.0,0.0
14:03:18,465557.0,0.0,0.0
14:03:18,465563.0,0.0,0.0
14:03:18,465585.0,0.0,0.0
14:03:18,465453.0,0.0,0.0
14:03:18,465546.0,0.0,0.0
14:03:18,465604.0,0.0,0.0
14:03:18,465491.0,0.0,0.0
14:03:18,465622.0,0.0,0.0
14:03:18,465578.0,0.0,0.0
14:03:18,465678.0,0.0,0.0
14:03:18,465776.0,0.0,0.0
14:03:18,465755.0,0.0,0.0
14:03:18,465926.0,0.0,0.0
14:03:18,465911.0,0.0,0.0
14:03:18,465951.0,0.0,0.0
14:03:18,465968.0,0.0,0.0
14:03:18,465946.0,0.0,0.0
14:03:18,466073.0,0.0,0.0
14:03:18,465989.0,0.0,0.0
14:03:18,466056.0,0.0,0.0
14:03:18,466077.0,0.0,0.0
14:03:18,465906.0,0.0,0.0
14:03:18,466018.0,0.0,0.0
14:03:18,465958.0,0.0,0.0
14:03:18,466044.0,0.0,0.0
14:03:18,466102.0,0.0,0.0
14:03:18,466034.0,0.0,0.0
14:03:18,466166.0,0.0,0.0
14:03:18,466076.0,0.0,0.0
14:03:18,466139.0,0.0,0.0
14:03:18,466201.0,0.0,0.0
14:03:18,466141.0,0.0,0.0
14:03:18,466292.0,0.0,0.0
14:03:18,466229.0,0.0,0.0
14:03:18,466254.0,0.0,0.0
14:03:18,466243.0,0.0,0.0
14:03:18,466164.0,0.0,0.0
14:03:18,466318.0,0.0,0.0
14:03:18,466270.0,0.0,0.0
14:03:18,466300.0,0.0,0.0
14:03:18,466311.0,0.0,0.0
14:03:18,466196.0,0.0,0.0
14:03:18,466323.0,0.0,0.0
14:03:18,466214.0,0.0,0.0
14:03:18,466220.0,0.0,0.0
14:03:18,466279.0,0.0,0.0
14:03:18,466143.0,0.0,0.0
14:03:18,466239.0,0.0,0.0
14:03:18,466119.0,0.0,0.0
14:03:18,466164.0,0.0,0.0
14:03:18,466193.0,0.0,0.0
14:03:18,466112.0,0.0,0.0
14:03:18,466278.0,0.0,0.0
14:03:18,466198.0,0.0,0.0
14:03:18,466210.0,0.0,0.0
14:03:18,466261.0,0.0,0.0
14:03:18,466164.0,0.0,0.0
14:03:18,466271.0,0.0,0.0
14:03:18,466155.0,0.0,0.0
14:03:18,466184.0,0.0,0.0
14:03:18,466261.0,0.0,0.0
14:03:18,466133.0,0.0,0.0
14:03:18,466164.0,0.0,0.0
14:03:18,466102.0,0.0,0.0
14:03:18,466163.0,0.0,0.0
14:03:18,466184.0,0.0,0.0
14:03:18,466041.0,0.0,0.0
14:03:18,466119.0,0.0,0.0
14:03:18,465994.0,0.0,0.0
14:03:18,465968.0,0.0,0.0
14:03:18,465978.0,0.0,0.0
14:03:18,465897.0,0.0,0.0
14:03:18,466057.0,0.0,0.0
14:03:18,465957.0,0.0,0.0
14:03:18,466104.0,0.0,0.0
14:03:19,466254.0,0.0,0.0
14:03:19,466209.0,0.0,0.0
14:03:19,466259.0,0.0,0.0
14:03:19,466080.0,0.0,0.0
14:03:19,466056.0,0.0,0.0
14:03:19,466108.0,0.0,0.0
14:03:19,466046.0,0.0,0.0
14:03:19,466189.0,0.0,0.0
14:03:19,466140.0,0.0,0.0
14:03:19,466193.0,0.0,0.0
14:03:19,466290.0,0.0,0.0
14:03:19,466233.0,0.0,0.0
14:03:19,466338.0,0.0,0.0
14:03:19,466214.0,0.0,0.0
14:03:19,466269.0,0.0,0.0
14:03:19,466319.0,0.0,0.0
14:03:19,466179.0,0.0,0.0
14:03:19,466273.0,0.0,0.0
14:03:19,466182.0,0.0,0.0
14:03:19,466163.0,0.0,0.0
14:03:19,466133.0,0.0,0.0
14:03:19,466060.0,0.0,0.0
14:03:19,466175.0,0.0,0.0
14:03:19,466089.0,0.0,0.0
14:03:19,466091.0,0.0,0.0
14:03:19,466134.0,0.0,0.0
14:03:19,465995.0,0.0,0.0
14:03:19,466051.0,0.0,0.0
14:03:19,465967.0,0.0,0.0
14:03:19,466008.0,0.0,0.0
14:03:19,466100.0,0.0,0.0
14:03:19,466006.0,0.0,0.0
14:03:19,466145.0,0.0,0.0
14:03:19,466089.0,0.0,0.0
14:03:19,466129.0,0.0,0.0
14:03:19,466173.0,0.0,0.0
14:03:19,466125.0,0.0,0.0
14:03:19,466244.0,0.0,0.0
14:03:19,466203.0,0.0,0.0
14:03:19,466234.0,0.0,0.0
14:03:19,466263.0,0.0,0.0
14:03:19,466178.0,0.0,0.0
14:03:19,466334.0,0.0,0.0
14:03:19,466248.0,0.0,0.0
14:03:19,466316.0,0.0,0.0
14:03:19,466377.0,0.0,0.0
14:03:19,466272.0,0.0,0.0
14:03:19,466349.0,0.0,0.0
14:03:19,466229.0,0.0,0.0
14:03:19,466284.0,0.0,0.0
14:03:19,466317.0,0.0,0.0
14:03:19,466208.0,0.0,0.0
14:03:19,466333.0,0.0,0.0
14:03:19,466203.0,0.0,0.0
14:03:19,466201.0,0.0,0.0
14:03:19,466262.0,0.0,0.0
14:03:19,466148.0,0.0,0.0
14:03:19,466269.0,0.0,0.0
14:03:19,466183.0,0.0,0.0
14:03:19,466251.0,0.0,0.0
14:03:19,466287.0,0.0,0.0
14:03:19,466168.0,0.0,0.0
14:03:19,466270.0,0.0,0.0
14:03:19,466158.0,0.0,0.0
14:03:19,466144.0,0.0,0.0
14:03:19,466182.0,0.0,0.0
14:03:19,466047.0,0.0,0.0
14:03:19,466181.0,0.0,0.0
14:03:19,466063.0,0.0,0.0
14:03:19,466089.0,0.0,0.0
14:03:19,466104.0,0.0,0.0
14:03:19,465974.0,0.0,0.0
14:03:19,466123.0,0.0,0.0
14:03:19,466129.0,0.0,0.0
14:03:19,466223.0,0.0,0.0
14:03:19,466294.0,0.0,0.0
14:03:19,466138.0,0.0,0.0
14:03:19,466120.0,0.0,0.0
14:03:19,466009.0,0.0,0.0
14:03:19,465988.0,0.0,0.0
14:03:19,466044.0,0.0,0.0
14:03:19,465975.0,0.0,0.0
14:03:19,466064.0,0.0,0.0
14:03:19,465976.0,0.0,0.0
14:03:19,466040.0,0.0,0.0
14:03:19,466118.0,0.0,0.0
14:03:19,466001.0,0.0,0.0
14:03:19,466119.0,0.0,0.0
14:03:19,465988.0,0.0,0.0
14:03:19,465962.0,0.0,0.0
14:03:19,466028.0,0.0,0.0
14:03:19,465906.0,0.0,0.0
14:03:19,466005.0,0.0,0.0
14:03:19,465913.0,0.0,0.0
14:03:19,465923.0,0.0,0.0
14:03:19,465936.0,0.0,0.0
14:03:19,465862.0,0.0,0.0
14:03:19,465995.0,0.0,0.0
14:03:19,465916.0,0.0,0.0
14:03:19,465919.0,0.0,0.0
14:03:19,465944.0,0.0,0.0
14:03:19,465854.0,0.0,0.0
14:03:19,465976.0,0.0,0.0
14:03:19,465884.0,0.0,0.0
14:03:19,465860.0,0.0,0.0
14:03:19,465956.0,0.0,0.0
14:03:19,465862.0,0.0,0.0
14:03:19,465956.0,0.0,0.0
14:03:19,465836.0,0.0,0.0
14:03:19,465835.0,0.0,0.0
14:03:19,465896.0,0.0,0.0
14:03:19,465784.0,0.0,0.0
14:03:19,465877.0,0.0,0.0
14:03:19,465798.0,0.0,0.0
14:03:19,465784.0,0.0,0.0
14:03:19,465845.0,0.0,0.0
14:03:19,465763.0,0.0,0.0
14:03:19,465889.0,0.0,0.0
14:03:19,465787.0,0.0,0.0
14:03:19,465773.0,0.0,0.0
14:03:19,465858.0,0.0,0.0
14:03:19,465698.0,0.0,0.0
14:03:19,465788.0,0.0,0.0
14:03:19,465738.0,0.0,0.0
14:03:19,465764.0,0.0,0.0
14:03:19,465786.0,0.0,0.0
14:03:20,465619.0,0.0,0.0
14:03:20,465673.0,0.0,0.0
14:03:20,465558.0,0.0,0.0
14:03:20,465538.0,0.0,0.0
14:03:20,465616.0,0.0,0.0
14:03:20,465489.0,0.0,0.0
14:03:20,465628.0,0.0,0.0
14:03:20,465536.0,0.0,0.0
14:03:20,465513.0,0.0,0.0
14:03:20,465523.0,0.0,0.0
14:03:20,465429.0,0.0,0.0
14:03:20,465517.0,0.0,0.0
14:03:20,465465.0,0.0,0.0
14:03:20,465466.0,0.0,0.0
14:03:20,465478.0,0.0,0.0
14:03:20,465319.0,0.0,0.0
14:03:20,465392.0,0.0,0.0
14:03:20,465298.0,0.0,0.0
14:03:20,465259.0,0.0,0.0
14:03:20,465334.0,0.0,0.0
14:03:20,465187.0,0.0,0.0
14:03:20,465196.0,0.0,0.0
14:03:20,465239.0,0.0,0.0
14:03:20,465334.0,0.0,0.0
14:03:20,465396.0,0.0,0.0
14:03:20,465339.0,0.0,0.0
14:03:20,465319.0,0.0,0.0
14:03:20,465154.0,0.0,0.0
14:03:20,465154.0,0.0,0.0
14:03:20,465224.0,0.0,0.0
14:03:20,465096.0,0.0,0.0
14:03:20,465186.0,0.0,0.0
14:03:20,465106.0,0.0,0.0
14:03:20,465141.0,0.0,0.0
14:03:20,465195.0,0.0,0.0
14:03:20,465106.0,0.0,0.0
14:03:20,465166.0,0.0,0.0
14:03:20,465034.0,0.0,0.0
14:03:20,465044.0,0.0,0.0
14:03:20,465119.0,0.0,0.0
14:03:20,465011.0,0.0,0.0
14:03:20,465102.0,0.0,0.0
14:03:20,464993.0,0.0,0.0
14:03:20,464940.0,0.0,0.0
14:03:20,464998.0,0.0,0.0
14:03:20,464921.0,0.0,0.0
14:03:20,465004.0,0.0,0.0
14:03:20,464914.0,0.0,0.0
14:03:20,464893.0,0.0,0.0
14:03:20,464948.0,0.0,0.0
14:03:20,464813.0,0.0,0.0
14:03:20,464937.0,0.0,0.0
14:03:20,464851.0,0.0,0.0
14:03:20,464864.0,0.0,0.0
14:03:20,464949.0,0.0,0.0
14:03:20,464736.0,0.0,0.0
14:03:20,464796.0,0.0,0.0
14:03:20,464766.0,0.0,0.0
14:03:20,464796.0,0.0,0.0
14:03:20,464848.0,0.0,0.0
14:03:20,464680.0,0.0,0.0
14:03:20,464767.0,0.0,0.0
14:03:20,464673.0,0.0,0.0
14:03:20,464629.0,0.0,0.0
14:03:20,464685.0,0.0,0.0
14:03:20,464559.0,0.0,0.0
14:03:20,464668.0,0.0,0.0
14:03:20,464616.0,0.0,0.0
14:03:20,464590.0,0.0,0.0
14:03:20,464614.0,0.0,0.0
14:03:20,464486.0,0.0,0.0
14:03:20,464599.0,0.0,0.0
14:03:20,464515.0,0.0,0.0
14:03:20,464524.0,0.0,0.0
14:03:20,464606.0,0.0,0.0
14:03:20,464494.0,0.0,0.0
14:03:20,464601.0,0.0,0.0
14:03:20,464519.0,0.0,0.0
14:03:20,464533.0,0.0,0.0
14:03:20,464560.0,0.0,0.0
14:03:20,464474.0,0.0,0.0
14:03:20,464598.0,0.0,0.0
14:03:20,464476.0,0.0,0.0
14:03:20,464461.0,0.0,0.0
14:03:20,464521.0,0.0,0.0
14:03:20,464423.0,0.0,0.0
14:03:20,464543.0,0.0,0.0
14:03:20,464461.0,0.0,0.0
14:03:20,464406.0,0.0,0.0
14:03:20,464456.0,0.0,0.0
14:03:20,464365.0,0.0,0.0
14:03:20,464450.0,0.0,0.0
14:03:20,464389.0,0.0,0.0
14:03:20,464405.0,0.0,0.0
14:03:20,464482.0,0.0,0.0
14:03:20,464331.0,0.0,0.0
14:03:20,464401.0,0.0,0.0
14:03:20,464301.0,0.0,0.0
14:03:20,464298.0,0.0,0.0
14:03:20,464374.0,0.0,0.0
14:03:20,464258.0,0.0,0.0
14:03:20,464317.0,0.0,0.0
14:03:20,464238.0,0.0,0.0
14:03:20,464354.0,0.0,0.0
14:03:20,464509.0,0.0,0.0
14:03:20,464504.0,0.0,0.0
14:03:20,464483.0,0.0,0.0
14:03:20,464241.0,0.0,0.0
14:03:20,464191.0,0.0,0.0
14:03:20,464263.0,0.0,0.0
14:03:20,464123.0,0.0,0.0
14:03:20,464206.0,0.0,0.0
14:03:20,464164.0,0.0,0.0
14:03:20,464181.0,0.0,0.0
14:03:20,464253.0,0.0,0.0
14:03:20,464116.0,0.0,0.0
14:03:20,464234.0,0.0,0.0
14:03:20,464135.0,0.0,0.0
14:03:20,464098.0,0.0,0.0
14:03:20,464187.0,0.0,0.0
14:03:20,464039.0,0.0,0.0
14:03:20,464122.0,0.0,0.0
14:03:20,464037.0,0.0,0.0
14:03:20,464019.0,0.0,0.0
14:03:21,464081.0,0.0,0.0
14:03:21,463916.0,0.0,0.0
14:03:21,463970.0,0.0,0.0
14:03:21,463903.0,0.0,0.0
14:03:21,463886.0,0.0,0.0
14:03:21,463976.0,0.0,0.0
14:03:21,463839.0,0.0,0.0
14:03:21,463979.0,0.0,0.0
14:03:21,463911.0,0.0,0.0
14:03:21,463902.0,0.0,0.0
14:03:21,464016.0,0.0,0.0
14:03:21,463876.0,0.0,0.0
14:03:21,463993.0,0.0,0.0
14:03:21,463932.0,0.0,0.0
14:03:21,463914.0,0.0,0.0
14:03:21,463986.0,0.0,0.0
14:03:21,463886.0,0.0,0.0
14:03:21,464054.0,0.0,0.0
14:03:21,463977.0,0.0,0.0
14:03:21,463911.0,0.0,0.0
14:03:21,463967.0,0.0,0.0
14:03:21,463854.0,0.0,0.0
14:03:21,463971.0,0.0,0.0
14:03:21,463915.0,0.0,0.0
14:03:21,463871.0,0.0,0.0
14:03:21,463970.0,0.0,0.0
14:03:21,463874.0,0.0,0.0
14:03:21,463991.0,0.0,0.0
14:03:21,463951.0,0.0,0.0
14:03:21,463970.0,0.0,0.0
14:03:21,464102.0,0.0,0.0
14:03:21,464032.0,0.0,0.0
14:03:21,464114.0,0.0,0.0
14:03:21,464057.0,0.0,0.0
14:03:21,463986.0,0.0,0.0
14:03:21,464086.0,0.0,0.0
14:03:21,464184.0,0.0,0.0
14:03:21,464393.0,0.0,0.0
14:03:21,464421.0,0.0,0.0
14:03:21,464344.0,0.0,0.0
14:03:21,464314.0,0.0,0.0
14:03:21,464227.0,0.0,0.0
14:03:21,464421.0,0.0,0.0
14:03:21,464479.0,0.0,0.0
14:03:21,464494.0,0.0,0.0
14:03:21,464645.0,0.0,0.0
14:03:21,464515.0,0.0,0.0
14:03:21,464655.0,0.0,0.0
14:03:21,464624.0,0.0,0.0
14:03:21,464627.0,0.0,0.0
14:03:21,464758.0,0.0,0.0
14:03:21,464718.0,0.0,0.0
14:03:21,464863.0,0.0,0.0
14:03:21,464918.0,0.0,0.0
14:03:21,464963.0,0.0,0.0
14:03:21,465103.0,0.0,0.0
14:03:21,465055.0,0.0,0.0
14:03:21,465181.0,0.0,0.0
14:03:21,465208.0,0.0,0.0
14:03:21,465221.0,0.0,0.0
14:03:21,465349.0,0.0,0.0
14:03:21,465314.0,0.0,0.0
14:03:21,465418.0,0.0,0.0
14:03:21,465406.0,0.0,0.0
14:03:21,465416.0,0.0,0.0
14:03:21,465516.0,0.0,0.0
14:03:21,465359.0,0.0,0.0
14:03:21,465399.0,0.0,0.0
14:03:21,465474.0,0.0,0.0
14:03:21,465607.0,0.0,0.0
14:03:21,465911.0,0.0,0.0
14:03:21,465806.0,0.0,0.0
14:03:21,465699.0,0.0,0.0
14:03:21,465611.0,0.0,0.0
14:03:21,465599.0,0.0,0.0
14:03:21,465748.0,0.0,0.0
14:03:21,465667.0,0.0,0.0
14:03:21,465805.0,0.0,0.0
14:03:21,465774.0,0.0,0.0
14:03:21,465723.0,0.0,0.0
14:03:21,465815.0,0.0,0.0
14:03:21,465723.0,0.0,0.0
14:03:21,465808.0,0.0,0.0
14:03:21,465761.0,0.0,0.0
14:03:21,465738.0,0.0,0.0
14:03:21,465847.0,0.0,0.0
14:03:21,465710.0,0.0,0.0
14:03:21,465791.0,0.0,0.0
14:03:21,465708.0,0.0,0.0
14:03:21,465673.0,0.0,0.0
14:03:21,465747.0,0.0,0.0
14:03:21,465664.0,0.0,0.0
14:03:21,465784.0,0.0,0.0
14:03:21,465716.0,0.0,0.0
14:03:21,465658.0,0.0,0.0
14:03:21,465727.0,0.0,0.0
14:03:21,465587.0,0.0,0.0
14:03:21,465680.0,0.0,0.0
14:03:21,465656.0,0.0,0.0
14:03:21,465671.0,0.0,0.0
14:03:21,465728.0,0.0,0.0
14:03:21,465574.0,0.0,0.0
14:03:21,465655.0,0.0,0.0
14:03:21,465630.0,0.0,0.0
14:03:21,465594.0,0.0,0.0
14:03:21,465668.0,0.0,0.0
14:03:21,465499.0,0.0,0.0
14:03:21,465572.0,0.0,0.0
14:03:21,465499.0,0.0,0.0
14:03:21,465408.0,0.0,0.0
14:03:21,465483.0,0.0,0.0
14:03:21,465338.0,0.0,0.0
14:03:21,465388.0,0.0,0.0
14:03:21,465314.0,0.0,0.0
14:03:21,465277.0,0.0,0.0
14:03:21,465319.0,0.0,0.0
14:03:21,465138.0,0.0,0.0
14:03:21,465183.0,0.0,0.0
14:03:21,465126.0,0.0,0.0
14:03:21,465098.0,0.0,0.0
14:03:21,465173.0,0.0,0.0
14:03:21,464983.0,0.0,0.0
14:03:21,465028.0,0.0,0.0
14:03:21,464952.0,0.0,0.0
14:03:21,464898.0,0.0,0.0
14:03:22,464959.0,0.0,0.0
14:03:22,464855.0,0.0,0.0
14:03:22,464981.0,0.0,0.0
14:03:22,464932.0,0.0,0.0
14:03:22,464893.0,0.0,0.0
14:03:22,464903.0,0.0,0.0
14:03:22,464821.0,0.0,0.0
14:03:22,464936.0,0.0,0.0
14:03:22,464905.0,0.0,0.0
14:03:22,464863.0,0.0,0.0
14:03:22,464914.0,0.0,0.0
14:03:22,464728.0,0.0,0.0
14:03:22,464721.0,0.0,0.0
14:03:22,464626.0,0.0,0.0
14:03:22,464527.0,0.0,0.0
14:03:22,464535.0,0.0,0.0
14:03:22,464390.0,0.0,0.0
14:03:22,464473.0,0.0,0.0
14:03:22,464369.0,0.0,0.0
14:03:22,464304.0,0.0,0.0
14:03:22,464404.0,0.0,0.0
14:03:22,464329.0,0.0,0.0
14:03:22,464431.0,0.0,0.0
14:03:22,464386.0,0.0,0.0
14:03:22,464371.0,0.0,0.0
14:03:22,464419.0,0.0,0.0
14:03:22,464271.0,0.0,0.0
14:03:22,464338.0,0.0,0.0
14:03:22,464238.0,0.0,0.0
14:03:22,464169.0,0.0,0.0
14:03:22,464204.0,0.0,0.0
14:03:22,464072.0,0.0,0.0
14:03:22,464093.0,0.0,0.0
14:03:22,463922.0,0.0,0.0
14:03:22,463902.0,0.0,0.0
14:03:22,464156.0,0.0,0.0
14:03:22,464194.0,0.0,0.0
14:03:22,464306.0,0.0,0.0
14:03:22,464096.0,0.0,0.0
14:03:22,463885.0,0.0,0.0
14:03:22,463811.0,0.0,0.0
14:03:22,463651.0,0.0,0.0
14:03:22,463727.0,0.0,0.0
14:03:22,463649.0,0.0,0.0
14:03:22,463620.0,0.0,0.0
14:03:22,463687.0,0.0,0.0
14:03:22,463572.0,0.0,0.0
14:03:22,463634.0,0.0,0.0
14:03:22,463589.0,0.0,0.0
14:03:22,463616.0,0.0,0.0
14:03:22,463652.0,0.0,0.0
14:03:22,463572.0,0.0,0.0
14:03:22,463656.0,0.0,0.0
14:03:22,463585.0,0.0,0.0
14:03:22,463569.0,0.0,0.0
14:03:22,463667.0,0.0,0.0
14:03:22,463594.0,0.0,0.0
14:03:22,463626.0,0.0,0.0
14:03:22,463552.0,0.0,0.0
14:03:22,463503.0,0.0,0.0
14:03:22,463533.0,0.0,0.0
14:03:22,463434.0,0.0,0.0
14:03:22,463490.0,0.0,0.0
14:03:22,463436.0,0.0,0.0
14:03:22,463429.0,0.0,0.0
14:03:22,463518.0,0.0,0.0
14:03:22,463376.0,0.0,0.0
14:03:22,463442.0,0.0,0.0
14:03:22,463419.0,0.0,0.0
14:03:22,463402.0,0.0,0.0
14:03:22,463528.0,0.0,0.0
14:03:22,463475.0,0.0,0.0
14:03:22,463576.0,0.0,0.0
14:03:22,463532.0,0.0,0.0
14:03:22,463484.0,0.0,0.0
14:03:22,463565.0,0.0,0.0
14:03:22,463508.0,0.0,0.0
14:03:22,463643.0,0.0,0.0
14:03:22,463594.0,0.0,0.0
14:03:22,463490.0,0.0,0.0
14:03:22,463557.0,0.0,0.0
14:03:22,463480.0,0.0,0.0
14:03:22,463558.0,0.0,0.0
14:03:22,463544.0,0.0,0.0
14:03:22,463496.0,0.0,0.0
14:03:22,463618.0,0.0,0.0
14:03:22,463561.0,0.0,0.0
14:03:22,463646.0,0.0,0.0
14:03:22,463615.0,0.0,0.0
14:03:22,463594.0,0.0,0.0
14:03:22,463681.0,0.0,0.0
14:03:22,463576.0,0.0,0.0
14:03:22,463648.0,0.0,0.0
14:03:22,463590.0,0.0,0.0
14:03:22,463513.0,0.0,0.0
14:03:22,463564.0,0.0,0.0
14:03:22,463423.0,0.0,0.0
14:03:22,463519.0,0.0,0.0
14:03:22,463490.0,0.0,0.0
14:03:22,463436.0,0.0,0.0
14:03:22,463536.0,0.0,0.0
14:03:22,463433.0,0.0,0.0
14:03:22,463524.0,0.0,0.0
14:03:22,463498.0,0.0,0.0
14:03:22,463482.0,0.0,0.0
14:03:22,463594.0,0.0,0.0
14:03:22,463469.0,0.0,0.0
14:03:22,463530.0,0.0,0.0
14:03:22,463464.0,0.0,0.0
14:03:22,463438.0,0.0,0.0
14:03:22,463568.0,0.0,0.0
14:03:22,463483.0,0.0,0.0
14:03:22,463608.0,0.0,0.0
14:03:22,463583.0,0.0,0.0
14:03:22,463496.0,0.0,0.0
14:03:22,463600.0,0.0,0.0
14:03:22,463512.0,0.0,0.0
14:03:22,463618.0,0.0,0.0
14:03:22,463620.0,0.0,0.0
14:03:22,463572.0,0.0,0.0
14:03:22,463653.0,0.0,0.0
14:03:22,463507.0,0.0,0.0
14:03:22,463683.0,0.0,0.0
14:03:22,463874.0,0.0,0.0
14:03:22,463976.0,0.0,0.0
14:03:23,464112.0,0.0,0.0
14:03:23,463791.0,0.0,0.0
14:03:23,463743.0,0.0,0.0
14:03:23,463738.0,0.0,0.0
14:03:23,463734.0,0.0,0.0
14:03:23,463906.0,0.0,0.0
14:03:23,463824.0,0.0,0.0
14:03:23,463950.0,0.0,0.0
14:03:23,463981.0,0.0,0.0
14:03:23,463933.0,0.0,0.0
14:03:23,464030.0,0.0,0.0
14:03:23,463942.0,0.0,0.0
14:03:23,464043.0,0.0,0.0
14:03:23,464067.0,0.0,0.0
14:03:23,464006.0,0.0,0.0
14:03:23,464162.0,0.0,0.0
14:03:23,464065.0,0.0,0.0
14:03:23,464169.0,0.0,0.0
14:03:23,464204.0,0.0,0.0
14:03:23,464176.0,0.0,0.0
14:03:23,464342.0,0.0,0.0
14:03:23,464207.0,0.0,0.0
14:03:23,464286.0,0.0,0.0
14:03:23,464319.0,0.0,0.0
14:03:23,464256.0,0.0,0.0
14:03:23,464369.0,0.0,0.0
14:03:23,464319.0,0.0,0.0
14:03:23,464453.0,0.0,0.0
14:03:23,464484.0,0.0,0.0
14:03:23,464462.0,0.0,0.0
14:03:23,464582.0,0.0,0.0
14:03:23,464515.0,0.0,0.0
14:03:23,464616.0,0.0,0.0
14:03:23,464684.0,0.0,0.0
14:03:23,464709.0,0.0,0.0
14:03:23,464851.0,0.0,0.0
14:03:23,464789.0,0.0,0.0
14:03:23,464895.0,0.0,0.0
14:03:23,464935.0,0.0,0.0
14:03:23,464977.0,0.0,0.0
14:03:23,465123.0,0.0,0.0
14:03:23,464984.0,0.0,0.0
14:03:23,465068.0,0.0,0.0
14:03:23,465069.0,0.0,0.0
14:03:23,465054.0,0.0,0.0
14:03:23,465178.0,0.0,0.0
14:03:23,465115.0,0.0,0.0
14:03:23,465274.0,0.0,0.0
14:03:23,465292.0,0.0,0.0
14:03:23,465276.0,0.0,0.0
14:03:23,465354.0,0.0,0.0
14:03:23,465295.0,0.0,0.0
14:03:23,465409.0,0.0,0.0
14:03:23,465450.0,0.0,0.0
14:03:23,465451.0,0.0,0.0
14:03:23,465514.0,0.0,0.0
14:03:23,465458.0,0.0,0.0
14:03:23,465563.0,0.0,0.0
14:03:23,465609.0,0.0,0.0
14:03:23,465616.0,0.0,0.0
14:03:23,465761.0,0.0,0.0
14:03:23,465667.0,0.0,0.0
14:03:23,465745.0,0.0,0.0
14:03:23,465775.0,0.0,0.0
14:03:23,465752.0,0.0,0.0
14:03:23,465892.0,0.0,0.0
14:03:23,465829.0,0.0,0.0
14:03:23,465972.0,0.0,0.0
14:03:23,466012.0,0.0,0.0
14:03:23,465975.0,0.0,0.0
14:03:23,466071.0,0.0,0.0
14:03:23,465977.0,0.0,0.0
14:03:23,466048.0,0.0,0.0
14:03:23,466067.0,0.0,0.0
14:03:23,466076.0,0.0,0.0
14:03:23,466151.0,0.0,0.0
14:03:23,466049.0,0.0,0.0
14:03:23,466116.0,0.0,0.0
14:03:23,466121.0,0.0,0.0
14:03:23,466234.0,0.0,0.0
14:03:23,466426.0,0.0,0.0
14:03:23,466435.0,0.0,0.0
14:03:23,466448.0,0.0,0.0
14:03:23,466347.0,0.0,0.0
14:03:23,466276.0,0.0,0.0
14:03:23,466415.0,0.0,0.0
14:03:23,466379.0,0.0,0.0
14:03:23,466521.0,0.0,0.0
14:03:23,466581.0,0.0,0.0
14:03:23,466583.0,0.0,0.0
14:03:23,466691.0,0.0,0.0
14:03:23,466604.0,0.0,0.0
14:03:23,466708.0,0.0,0.0
14:03:23,466758.0,0.0,0.0
14:03:23,466749.0,0.0,0.0
14:03:23,466887.0,0.0,0.0
14:03:23,466858.0,0.0,0.0
14:03:23,466941.0,0.0,0.0
14:03:23,466974.0,0.0,0.0
14:03:23,466999.0,0.0,0.0
14:03:23,467127.0,0.0,0.0
14:03:23,467120.0,0.0,0.0
14:03:23,467216.0,0.0,0.0
14:03:23,467269.0,0.0,0.0
14:03:23,467274.0,0.0,0.0
14:03:23,467405.0,0.0,0.0
14:03:23,467381.0,0.0,0.0
14:03:23,467543.0,0.0,0.0
14:03:23,467599.0,0.0,0.0
14:03:23,467602.0,0.0,0.0
14:03:23,467762.0,0.0,0.0
14:03:23,467683.0,0.0,0.0
14:03:23,467791.0,0.0,0.0
14:03:23,467849.0,0.0,0.0
14:03:23,467886.0,0.0,0.0
14:03:23,468061.0,0.0,0.0
14:03:23,468017.0,0.0,0.0
14:03:23,468149.0,0.0,0.0
14:03:23,468187.0,0.0,0.0
14:03:23,468219.0,0.0,0.0
14:03:23,468405.0,0.0,0.0
14:03:23,468370.0,0.0,0.0
14:03:23,468468.0,0.0,0.0
14:03:23,468521.0,0.0,0.0
14:03:23,468544.0,0.0,0.0
14:03:24,468628.0,0.0,0.0
14:03:24,468571.0,0.0,0.0
14:03:24,468658.0,0.0,0.0
14:03:24,468697.0,0.0,0.0
14:03:24,468670.0,0.0,0.0
14:03:24,468815.0,0.0,0.0
14:03:24,468785.0,0.0,0.0
14:03:24,468886.0,0.0,0.0
14:03:24,468937.0,0.0,0.0
14:03:24,468968.0,0.0,0.0
14:03:24,469103.0,0.0,0.0
14:03:24,469068.0,0.0,0.0
14:03:24,469168.0,0.0,0.0
14:03:24,469214.0,0.0,0.0
14:03:24,469184.0,0.0,0.0
14:03:24,469284.0,0.0,0.0
14:03:24,469213.0,0.0,0.0
14:03:24,469314.0,0.0,0.0
14:03:24,469379.0,0.0,0.0
14:03:24,469398.0,0.0,0.0
14:03:24,469513.0,0.0,0.0
14:03:24,469475.0,0.0,0.0
14:03:24,469626.0,0.0,0.0
14:03:24,469664.0,0.0,0.0
14:03:24,469676.0,0.0,0.0
14:03:24,469829.0,0.0,0.0
14:03:24,469773.0,0.0,0.0
14:03:24,469862.0,0.0,0.0
14:03:24,469868.0,0.0,0.0
14:03:24,469863.0,0.0,0.0
14:03:24,470058.0,0.0,0.0
14:03:24,470057.0,0.0,0.0
14:03:24,470349.0,0.0,0.0
14:03:24,470513.0,0.0,0.0
14:03:24,470559.0,0.0,0.0
14:03:24,470686.0,0.0,0.0
14:03:24,470628.0,0.0,0.0
14:03:24,470863.0,0.0,0.0
14:03:24,471036.0,0.0,0.0
14:03:24,471136.0,0.0,0.0
14:03:24,471429.0,0.0,0.0
14:03:24,471448.0,0.0,0.0
14:03:24,471690.0,0.0,0.0
14:03:24,471869.0,0.0,0.0
14:03:24,471971.0,0.0,0.0
14:03:24,472287.0,0.0,0.0
14:03:24,472393.0,0.0,0.0
14:03:24,472578.0,0.0,0.0
14:03:24,472724.0,0.0,0.0
14:03:24,472777.0,0.0,0.0
14:03:24,473038.0,0.0,0.0
14:03:24,473088.0,0.0,0.0
14:03:24,473266.0,0.0,0.0
14:03:24,473478.0,0.0,0.0
14:03:24,473590.0,0.0,0.0
14:03:24,473903.0,0.0,0.0
14:03:24,474013.0,0.0,0.0
14:03:24,474269.0,0.0,0.0
14:03:24,474406.0,0.0,0.0
14:03:24,474459.0,0.0,0.0
14:03:24,474694.0,0.0,0.0
14:03:24,474749.0,0.0,0.0
14:03:24,474946.0,0.0,0.0
14:03:24,475129.0,0.0,0.0
14:03:24,475184.0,0.0,0.0
14:03:24,475372.0,0.0,0.0
14:03:24,475406.0,0.0,0.0
14:03:24,475556.0,0.0,0.0
14:03:24,475681.0,0.0,0.0
14:03:24,475733.0,0.0,0.0
14:03:24,475941.0,0.0,0.0
14:03:24,475914.0,0.0,0.0
14:03:24,476074.0,0.0,0.0
14:03:24,476192.0,0.0,0.0
14:03:24,476181.0,0.0,0.0
14:03:24,476315.0,0.0,0.0
14:03:24,476288.0,0.0,0.0
14:03:24,476360.0,0.0,0.0
14:03:24,476353.0,0.0,0.0
14:03:24,476301.0,0.0,0.0
14:03:24,476425.0,0.0,0.0
14:03:24,476331.0,0.0,0.0
14:03:24,476426.0,0.0,0.0
14:03:24,476476.0,0.0,0.0
14:03:24,476438.0,0.0,0.0
14:03:24,476511.0,0.0,0.0
14:03:24,476394.0,0.0,0.0
14:03:24,476509.0,0.0,0.0
14:03:24,476588.0,0.0,0.0
14:03:24,476644.0,0.0,0.0
14:03:24,476784.0,0.0,0.0
14:03:24,476659.0,0.0,0.0
14:03:24,476704.0,0.0,0.0
14:03:24,476632.0,0.0,0.0
14:03:24,476535.0,0.0,0.0
14:03:24,476664.0,0.0,0.0
14:03:24,476514.0,0.0,0.0
14:03:24,476593.0,0.0,0.0
14:03:24,476581.0,0.0,0.0
14:03:24,476558.0,0.0,0.0
14:03:24,476677.0,0.0,0.0
14:03:24,476581.0,0.0,0.0
14:03:24,476674.0,0.0,0.0
14:03:24,476617.0,0.0,0.0
14:03:24,476476.0,0.0,0.0
14:03:24,476551.0,0.0,0.0
14:03:24,476354.0,0.0,0.0
14:03:24,476306.0,0.0,0.0
14:03:24,476266.0,0.0,0.0
14:03:24,475948.0,0.0,0.0
14:03:24,475681.0,0.0,0.0
14:03:24,475169.0,0.0,0.0
14:03:24,475042.0,0.0,0.0
14:03:24,474728.0,0.0,0.0
14:03:24,474238.0,0.0,0.0
14:03:24,474046.0,0.0,0.0
14:03:24,473668.0,0.0,0.0
14:03:24,473435.0,0.0,0.0
14:03:24,473321.0,0.0,0.0
14:03:24,473097.0,0.0,0.0
14:03:24,473023.0,0.0,0.0
14:03:24,472699.0,0.0,0.0
14:03:24,472508.0,0.0,0.0
14:03:24,472340.0,0.0,0.0
14:03:24,472289.0,0.0,0.0
14:03:25,472196.0,0.0,0.0
14:03:25,471818.0,0.0,0.0
14:03:25,471698.0,0.0,0.0
14:03:25,471499.0,0.0,0.0
14:03:25,471229.0,0.0,0.0
14:03:25,471203.0,0.0,0.0
14:03:25,470934.0,0.0,0.0
14:03:25,470806.0,0.0,0.0
14:03:25,470636.0,0.0,0.0
14:03:25,470441.0,0.0,0.0
14:03:25,470462.0,0.0,0.0
14:03:25,470221.0,0.0,0.0
14:03:25,470227.0,0.0,0.0
14:03:25,470111.0,0.0,0.0
14:03:25,469876.0,0.0,0.0
14:03:25,470020.0,0.0,0.0
14:03:25,469907.0,0.0,0.0
14:03:25,469869.0,0.0,0.0
14:03:25,469768.0,0.0,0.0
14:03:25,469574.0,0.0,0.0
14:03:25,469579.0,0.0,0.0
14:03:25,469344.0,0.0,0.0
14:03:25,469278.0,0.0,0.0
14:03:25,469226.0,0.0,0.0
14:03:25,469223.0,0.0,0.0
14:03:25,469299.0,0.0,0.0
14:03:25,469059.0,0.0,0.0
14:03:25,468939.0,0.0,0.0
14:03:25,468814.0,0.0,0.0
14:03:25,468695.0,0.0,0.0
14:03:25,468739.0,0.0,0.0
14:03:25,468513.0,0.0,0.0
14:03:25,468453.0,0.0,0.0
14:03:25,468347.0,0.0,0.0
14:03:25,468136.0,0.0,0.0
14:03:25,468179.0,0.0,0.0
14:03:25,467989.0,0.0,0.0
14:03:25,467942.0,0.0,0.0
14:03:25,467884.0,0.0,0.0
14:03:25,467740.0,0.0,0.0
14:03:25,467828.0,0.0,0.0
14:03:25,467735.0,0.0,0.0
14:03:25,467750.0,0.0,0.0
14:03:25,467780.0,0.0,0.0
14:03:25,467635.0,0.0,0.0
14:03:25,467658.0,0.0,0.0
14:03:25,467561.0,0.0,0.0
14:03:25,467434.0,0.0,0.0
14:03:25,467355.0,0.0,0.0
14:03:25,467270.0,0.0,0.0
14:03:25,467291.0,0.0,0.0
14:03:25,467117.0,0.0,0.0
14:03:25,467016.0,0.0,0.0
14:03:25,466934.0,0.0,0.0
14:03:25,466908.0,0.0,0.0
14:03:25,467014.0,0.0,0.0
14:03:25,466863.0,0.0,0.0
14:03:25,466816.0,0.0,0.0
14:03:25,466878.0,0.0,0.0
14:03:25,466924.0,0.0,0.0
14:03:25,467225.0,0.0,0.0
14:03:25,467126.0,0.0,0.0
14:03:25,466800.0,0.0,0.0
14:03:25,466591.0,0.0,0.0
14:03:25,466618.0,0.0,0.0
14:03:25,466666.0,0.0,0.0
14:03:25,466598.0,0.0,0.0
14:03:25,466639.0,0.0,0.0
14:03:25,466608.0,0.0,0.0
14:03:25,466362.0,0.0,0.0
14:03:25,466474.0,0.0,0.0
14:03:25,466479.0,0.0,0.0
14:03:25,466499.0,0.0,0.0
14:03:25,466464.0,0.0,0.0
14:03:25,466286.0,0.0,0.0
14:03:25,466466.0,0.0,0.0
14:03:25,466376.0,0.0,0.0
14:03:25,466372.0,0.0,0.0
14:03:25,466393.0,0.0,0.0
14:03:25,466296.0,0.0,0.0
14:03:25,466464.0,0.0,0.0
14:03:25,466376.0,0.0,0.0
14:03:25,466396.0,0.0,0.0
14:03:25,466355.0,0.0,0.0
14:03:25,466253.0,0.0,0.0
14:03:25,466411.0,0.0,0.0
14:03:25,466239.0,0.0,0.0
14:03:25,466245.0,0.0,0.0
14:03:25,466306.0,0.0,0.0
14:03:25,466263.0,0.0,0.0
14:03:25,466401.0,0.0,0.0
14:03:25,466376.0,0.0,0.0
14:03:25,466439.0,0.0,0.0
14:03:25,466535.0,0.0,0.0
14:03:25,466507.0,0.0,0.0
14:03:25,466647.0,0.0,0.0
14:03:25,466581.0,0.0,0.0
14:03:25,466615.0,0.0,0.0
14:03:25,466681.0,0.0,0.0
14:03:25,466611.0,0.0,0.0
14:03:25,466720.0,0.0,0.0
14:03:25,466638.0,0.0,0.0
14:03:25,466756.0,0.0,0.0
14:03:25,466801.0,0.0,0.0
14:03:25,466710.0,0.0,0.0
14:03:25,466904.0,0.0,0.0
14:03:25,466863.0,0.0,0.0
14:03:25,466979.0,0.0,0.0
14:03:25,467105.0,0.0,0.0
14:03:25,467101.0,0.0,0.0
14:03:25,467383.0,0.0,0.0
14:03:25,467415.0,0.0,0.0
14:03:25,467539.0,0.0,0.0
14:03:25,467738.0,0.0,0.0
14:03:25,467826.0,0.0,0.0
14:03:25,468191.0,0.0,0.0
14:03:25,468349.0,0.0,0.0
14:03:25,468543.0,0.0,0.0
14:03:25,468806.0,0.0,0.0
14:03:25,468932.0,0.0,0.0
14:03:25,469208.0,0.0,0.0
14:03:25,469223.0,0.0,0.0
14:03:25,469323.0,0.0,0.0
14:03:25,469476.0,0.0,0.0
14:03:25,469478.0,0.0,0.0
14:03:26,469668.0,0.0,0.0
14:03:26,469641.0,0.0,0.0
14:03:26,469781.0,0.0,0.0
14:03:26,469923.0,0.0,0.0
14:03:26,469951.0,0.0,0.0
14:03:26,470248.0,0.0,0.0
14:03:26,470398.0,0.0,0.0
14:03:26,470804.0,0.0,0.0
14:03:26,471132.0,0.0,0.0
14:03:26,471332.0,0.0,0.0
14:03:26,471496.0,0.0,0.0
14:03:26,471414.0,0.0,0.0
14:03:26,471628.0,0.0,0.0
14:03:26,471852.0,0.0,0.0
14:03:26,471861.0,0.0,0.0
14:03:26,472053.0,0.0,0.0
14:03:26,472059.0,0.0,0.0
14:03:26,472216.0,0.0,0.0
14:03:26,472328.0,0.0,0.0
14:03:26,472369.0,0.0,0.0
14:03:26,472596.0,0.0,0.0
14:03:26,472586.0,0.0,0.0
14:03:26,472755.0,0.0,0.0
14:03:26,472823.0,0.0,0.0
14:03:26,472840.0,0.0,0.0
14:03:26,473029.0,0.0,0.0
14:03:26,472971.0,0.0,0.0
14:03:26,473112.0,0.0,0.0
14:03:26,473154.0,0.0,0.0
14:03:26,473114.0,0.0,0.0
14:03:26,473314.0,0.0,0.0
14:03:26,473212.0,0.0,0.0
14:03:26,473296.0,0.0,0.0
14:03:26,473273.0,0.0,0.0
14:03:26,473188.0,0.0,0.0
14:03:26,473259.0,0.0,0.0
14:03:26,473084.0,0.0,0.0
14:03:26,473113.0,0.0,0.0
14:03:26,473103.0,0.0,0.0
14:03:26,472993.0,0.0,0.0
14:03:26,473074.0,0.0,0.0
14:03:26,472909.0,0.0,0.0
14:03:26,472910.0,0.0,0.0
14:03:26,472812.0,0.0,0.0
14:03:26,472586.0,0.0,0.0
14:03:26,472604.0,0.0,0.0
14:03:26,472421.0,0.0,0.0
14:03:26,472342.0,0.0,0.0
14:03:26,472227.0,0.0,0.0
14:03:26,472019.0,0.0,0.0
14:03:26,472046.0,0.0,0.0
14:03:26,471811.0,0.0,0.0
14:03:26,471715.0,0.0,0.0
14:03:26,471606.0,0.0,0.0
14:03:26,471361.0,0.0,0.0
14:03:26,471330.0,0.0,0.0
14:03:26,471073.0,0.0,0.0
14:03:26,470962.0,0.0,0.0
14:03:26,470835.0,0.0,0.0
14:03:26,470622.0,0.0,0.0
14:03:26,470629.0,0.0,0.0
14:03:26,470371.0,0.0,0.0
14:03:26,470268.0,0.0,0.0
14:03:26,470156.0,0.0,0.0
14:03:26,469919.0,0.0,0.0
14:03:26,469913.0,0.0,0.0
14:03:26,469711.0,0.0,0.0
14:03:26,469699.0,0.0,0.0
14:03:26,469617.0,0.0,0.0
14:03:26,469405.0,0.0,0.0
14:03:26,469427.0,0.0,0.0
14:03:26,469232.0,0.0,0.0
14:03:26,469216.0,0.0,0.0
14:03:26,469120.0,0.0,0.0
14:03:26,468924.0,0.0,0.0
14:03:26,468978.0,0.0,0.0
14:03:26,468747.0,0.0,0.0
14:03:26,468709.0,0.0,0.0
14:03:26,468609.0,0.0,0.0
14:03:26,468333.0,0.0,0.0
14:03:26,468326.0,0.0,0.0
14:03:26,468129.0,0.0,0.0
14:03:26,468169.0,0.0,0.0
14:03:26,468282.0,0.0,0.0
14:03:26,468047.0,0.0,0.0
14:03:26,467802.0,0.0,0.0
14:03:26,467519.0,0.0,0.0
14:03:26,467441.0,0.0,0.0
14:03:26,467384.0,0.0,0.0
14:03:26,467148.0,0.0,0.0
14:03:26,467124.0,0.0,0.0
14:03:26,466883.0,0.0,0.0
14:03:26,466776.0,0.0,0.0
14:03:26,466700.0,0.0,0.0
14:03:26,466466.0,0.0,0.0
14:03:26,466450.0,0.0,0.0
14:03:26,466255.0,0.0,0.0
14:03:26,466169.0,0.0,0.0
14:03:26,466109.0,0.0,0.0
14:03:26,465936.0,0.0,0.0
14:03:26,465978.0,0.0,0.0
14:03:26,465808.0,0.0,0.0
14:03:26,465759.0,0.0,0.0
14:03:26,465737.0,0.0,0.0
14:03:26,465588.0,0.0,0.0
14:03:26,465657.0,0.0,0.0
14:03:26,465549.0,0.0,0.0
14:03:26,465588.0,0.0,0.0
14:03:26,465616.0,0.0,0.0
14:03:26,465468.0,0.0,0.0
14:03:26,465508.0,0.0,0.0
14:03:26,465430.0,0.0,0.0
14:03:26,465523.0,0.0,0.0
14:03:26,465611.0,0.0,0.0
14:03:26,465537.0,0.0,0.0
14:03:26,465599.0,0.0,0.0
14:03:26,465501.0,0.0,0.0
14:03:26,465536.0,0.0,0.0
14:03:26,465571.0,0.0,0.0
14:03:26,465492.0,0.0,0.0
14:03:26,465616.0,0.0,0.0
14:03:26,465532.0,0.0,0.0
14:03:26,465553.0,0.0,0.0
14:03:26,465541.0,0.0,0.0
14:03:26,465475.0,0.0,0.0
14:03:26,465574.0,0.0,0.0
14:03:27,465494.0,0.0,0.0
14:03:27,465534.0,0.0,0.0
14:03:27,465572.0,0.0,0.0
14:03:27,465499.0,0.0,0.0
14:03:27,465606.0,0.0,0.0
14:03:27,465529.0,0.0,0.0
14:03:27,465592.0,0.0,0.0
14:03:27,465661.0,0.0,0.0
14:03:27,465601.0,0.0,0.0
14:03:27,465744.0,0.0,0.0
14:03:27,465691.0,0.0,0.0
14:03:27,465760.0,0.0,0.0
14:03:27,465806.0,0.0,0.0
14:03:27,465764.0,0.0,0.0
14:03:27,465907.0,0.0,0.0
14:03:27,465794.0,0.0,0.0
14:03:27,465863.0,0.0,0.0
14:03:27,465901.0,0.0,0.0
14:03:27,465802.0,0.0,0.0
14:03:27,465949.0,0.0,0.0
14:03:27,465864.0,0.0,0.0
14:03:27,465897.0,0.0,0.0
14:03:27,465905.0,0.0,0.0
14:03:27,465778.0,0.0,0.0
14:03:27,465888.0,0.0,0.0
14:03:27,465758.0,0.0,0.0
14:03:27,465779.0,0.0,0.0
14:03:27,465797.0,0.0,0.0
14:03:27,465626.0,0.0,0.0
14:03:27,465638.0,0.0,0.0
14:03:27,465555.0,0.0,0.0
14:03:27,465739.0,0.0,0.0
14:03:27,465946.0,0.0,0.0
14:03:27,465798.0,0.0,0.0
14:03:27,465579.0,0.0,0.0
14:03:27,465376.0,0.0,0.0
14:03:27,465289.0,0.0,0.0
14:03:27,465241.0,0.0,0.0
14:03:27,465088.0,0.0,0.0
14:03:27,465183.0,0.0,0.0
14:03:27,465053.0,0.0,0.0
14:03:27,465174.0,0.0,0.0
14:03:27,465288.0,0.0,0.0
14:03:27,465213.0,0.0,0.0
14:03:27,465308.0,0.0,0.0
14:03:27,465176.0,0.0,0.0
14:03:27,465233.0,0.0,0.0
14:03:27,465290.0,0.0,0.0
14:03:27,465215.0,0.0,0.0
14:03:27,465337.0,0.0,0.0
14:03:27,465236.0,0.0,0.0
14:03:27,465288.0,0.0,0.0
14:03:27,465293.0,0.0,0.0
14:03:27,465161.0,0.0,0.0
14:03:27,465254.0,0.0,0.0
14:03:27,465198.0,0.0,0.0
14:03:27,465232.0,0.0,0.0
14:03:27,465284.0,0.0,0.0
14:03:27,465209.0,0.0,0.0
14:03:27,465346.0,0.0,0.0
14:03:27,465309.0,0.0,0.0
14:03:27,465357.0,0.0,0.0
14:03:27,465463.0,0.0,0.0
14:03:27,465406.0,0.0,0.0
14:03:27,465573.0,0.0,0.0
14:03:27,465545.0,0.0,0.0
14:03:27,465564.0,0.0,0.0
14:03:27,465634.0,0.0,0.0
14:03:27,465556.0,0.0,0.0
14:03:27,465650.0,0.0,0.0
14:03:27,465608.0,0.0,0.0
14:03:27,465669.0,0.0,0.0
14:03:27,465713.0,0.0,0.0
14:03:27,465664.0,0.0,0.0
14:03:27,465881.0,0.0,0.0
14:03:27,465904.0,0.0,0.0
14:03:27,465926.0,0.0,0.0
14:03:27,465975.0,0.0,0.0
14:03:27,465883.0,0.0,0.0
14:03:27,465962.0,0.0,0.0
14:03:27,465911.0,0.0,0.0
14:03:27,465926.0,0.0,0.0
14:03:27,466022.0,0.0,0.0
14:03:27,465924.0,0.0,0.0
14:03:27,466094.0,0.0,0.0
14:03:27,466106.0,0.0,0.0
14:03:27,466124.0,0.0,0.0
14:03:27,466224.0,0.0,0.0
14:03:27,466146.0,0.0,0.0
14:03:27,466297.0,0.0,0.0
14:03:27,466276.0,0.0,0.0
14:03:27,466354.0,0.0,0.0
14:03:27,466418.0,0.0,0.0
14:03:27,466350.0,0.0,0.0
14:03:27,466544.0,0.0,0.0
14:03:27,466533.0,0.0,0.0
14:03:27,466590.0,0.0,0.0
14:03:27,466689.0,0.0,0.0
14:03:27,466591.0,0.0,0.0
14:03:27,466757.0,0.0,0.0
14:03:27,466663.0,0.0,0.0
14:03:27,466694.0,0.0,0.0
14:03:27,466782.0,0.0,0.0
14:03:27,466736.0,0.0,0.0
14:03:27,466991.0,0.0,0.0
14:03:27,467090.0,0.0,0.0
14:03:27,467226.0,0.0,0.0
14:03:27,467405.0,0.0,0.0
14:03:27,467178.0,0.0,0.0
14:03:27,467228.0,0.0,0.0
14:03:27,467211.0,0.0,0.0
14:03:27,467309.0,0.0,0.0
14:03:27,467481.0,0.0,0.0
14:03:27,467467.0,0.0,0.0
14:03:27,467698.0,0.0,0.0
14:03:27,467668.0,0.0,0.0
14:03:27,467768.0,0.0,0.0
14:03:27,467919.0,0.0,0.0
14:03:27,467858.0,0.0,0.0
14:03:27,468051.0,0.0,0.0
14:03:27,468023.0,0.0,0.0
14:03:27,468087.0,0.0,0.0
14:03:27,468224.0,0.0,0.0
14:03:27,468186.0,0.0,0.0
14:03:27,468404.0,0.0,0.0
14:03:28,468334.0,0.0,0.0
14:03:28,468388.0,0.0,0.0
14:03:28,468509.0,0.0,0.0
14:03:28,468441.0,0.0,0.0
14:03:28,468601.0,0.0,0.0
14:03:28,468536.0,0.0,0.0
14:03:28,468592.0,0.0,0.0
14:03:28,468731.0,0.0,0.0
14:03:28,468668.0,0.0,0.0
14:03:28,468834.0,0.0,0.0
14:03:28,468753.0,0.0,0.0
14:03:28,468854.0,0.0,0.0
14:03:28,468968.0,0.0,0.0
14:03:28,468874.0,0.0,0.0
14:03:28,469012.0,0.0,0.0
14:03:28,468941.0,0.0,0.0
14:03:28,468961.0,0.0,0.0
14:03:28,469086.0,0.0,0.0
14:03:28,469009.0,0.0,0.0
14:03:28,469191.0,0.0,0.0
14:03:28,469125.0,0.0,0.0
14:03:28,469154.0,0.0,0.0
14:03:28,469215.0,0.0,0.0
14:03:28,469090.0,0.0,0.0
14:03:28,469261.0,0.0,0.0
14:03:28,469255.0,0.0,0.0
14:03:28,469311.0,0.0,0.0
14:03:28,469404.0,0.0,0.0
14:03:28,469294.0,0.0,0.0
14:03:28,469355.0,0.0,0.0
14:03:28,469272.0,0.0,0.0
14:03:28,469364.0,0.0,0.0
14:03:28,469455.0,0.0,0.0
14:03:28,469264.0,0.0,0.0
14:03:28,469432.0,0.0,0.0
14:03:28,469353.0,0.0,0.0
14:03:28,469339.0,0.0,0.0
14:03:28,469418.0,0.0,0.0
14:03:28,469353.0,0.0,0.0
14:03:28,469489.0,0.0,0.0
14:03:28,469443.0,0.0,0.0
14:03:28,469439.0,0.0,0.0
14:03:28,469533.0,0.0,0.0
14:03:28,469425.0,0.0,0.0
14:03:28,469511.0,0.0,0.0
14:03:28,469490.0,0.0,0.0
14:03:28,469543.0,0.0,0.0
14:03:28,469604.0,0.0,0.0
14:03:28,469455.0,0.0,0.0
14:03:28,469498.0,0.0,0.0
14:03:28,469384.0,0.0,0.0
14:03:28,469367.0,0.0,0.0
14:03:28,469514.0,0.0,0.0
14:03:28,469528.0,0.0,0.0
14:03:28,469693.0,0.0,0.0
14:03:28,469591.0,0.0,0.0
14:03:28,469428.0,0.0,0.0
14:03:28,469432.0,0.0,0.0
14:03:28,469314.0,0.0,0.0
14:03:28,469497.0,0.0,0.0
14:03:28,469479.0,0.0,0.0
14:03:28,469518.0,0.0,0.0
14:03:28,469552.0,0.0,0.0
14:03:28,469433.0,0.0,0.0
14:03:28,469585.0,0.0,0.0
14:03:28,469543.0,0.0,0.0
14:03:28,469591.0,0.0,0.0
14:03:28,469723.0,0.0,0.0
14:03:28,469700.0,0.0,0.0
14:03:28,469868.0,0.0,0.0
14:03:28,469796.0,0.0,0.0
14:03:28,469852.0,0.0,0.0
14:03:28,469968.0,0.0,0.0
14:03:28,469887.0,0.0,0.0
14:03:28,469986.0,0.0,0.0
14:03:28,469941.0,0.0,0.0
14:03:28,469999.0,0.0,0.0
14:03:28,470071.0,0.0,0.0
14:03:28,469962.0,0.0,0.0
14:03:28,470106.0,0.0,0.0
14:03:28,470087.0,0.0,0.0
14:03:28,470166.0,0.0,0.0
14:03:28,470236.0,0.0,0.0
14:03:28,470126.0,0.0,0.0
14:03:28,470278.0,0.0,0.0
14:03:28,470234.0,0.0,0.0
14:03:28,470282.0,0.0,0.0
14:03:28,470418.0,0.0,0.0
14:03:28,470363.0,0.0,0.0
14:03:28,470552.0,0.0,0.0
14:03:28,470486.0,0.0,0.0
14:03:28,470535.0,0.0,0.0
14:03:28,470643.0,0.0,0.0
14:03:28,470571.0,0.0,0.0
14:03:28,470733.0,0.0,0.0
14:03:28,470697.0,0.0,0.0
14:03:28,470718.0,0.0,0.0
14:03:28,470839.0,0.0,0.0
14:03:28,470746.0,0.0,0.0
14:03:28,470884.0,0.0,0.0
14:03:28,470834.0,0.0,0.0
14:03:28,470887.0,0.0,0.0
14:03:28,470981.0,0.0,0.0
14:03:28,470873.0,0.0,0.0
14:03:28,470991.0,0.0,0.0
14:03:28,470976.0,0.0,0.0
14:03:28,471040.0,0.0,0.0
14:03:28,471136.0,0.0,0.0
14:03:28,471018.0,0.0,0.0
14:03:28,471206.0,0.0,0.0
14:03:28,471171.0,0.0,0.0
14:03:28,471134.0,0.0,0.0
14:03:28,471213.0,0.0,0.0
14:03:28,471147.0,0.0,0.0
14:03:28,471304.0,0.0,0.0
14:03:28,471260.0,0.0,0.0
14:03:28,471249.0,0.0,0.0
14:03:28,471376.0,0.0,0.0
14:03:28,471304.0,0.0,0.0
14:03:28,471413.0,0.0,0.0
14:03:28,471358.0,0.0,0.0
14:03:28,471367.0,0.0,0.0
14:03:28,471436.0,0.0,0.0
14:03:28,471378.0,0.0,0.0
14:03:28,471608.0,0.0,0.0
14:03:29,471560.0,0.0,0.0
14:03:29,471571.0,0.0,0.0
14:03:29,471559.0,0.0,0.0
14:03:29,471398.0,0.0,0.0
14:03:29,471553.0,0.0,0.0
14:03:29,471526.0,0.0,0.0
14:03:29,471549.0,0.0,0.0
14:03:29,471651.0,0.0,0.0
14:03:29,471560.0,0.0,0.0
14:03:29,471661.0,0.0,0.0
14:03:29,471664.0,0.0,0.0
14:03:29,471698.0,0.0,0.0
14:03:29,471749.0,0.0,0.0
14:03:29,471639.0,0.0,0.0
14:03:29,471779.0,0.0,0.0
14:03:29,471723.0,0.0,0.0
14:03:29,471715.0,0.0,0.0
14:03:29,471783.0,0.0,0.0
14:03:29,471677.0,0.0,0.0
14:03:29,471791.0,0.0,0.0
14:03:29,471678.0,0.0,0.0
14:03:29,471652.0,0.0,0.0
14:03:29,471719.0,0.0,0.0
14:03:29,471649.0,0.0,0.0
14:03:29,471766.0,0.0,0.0
14:03:29,471657.0,0.0,0.0
14:03:29,471636.0,0.0,0.0
14:03:29,471711.0,0.0,0.0
14:03:29,471581.0,0.0,0.0
14:03:29,471678.0,0.0,0.0
14:03:29,471604.0,0.0,0.0
14:03:29,471613.0,0.0,0.0
14:03:29,471662.0,0.0,0.0
14:03:29,471531.0,0.0,0.0
14:03:29,471603.0,0.0,0.0
14:03:29,471475.0,0.0,0.0
14:03:29,471429.0,0.0,0.0
14:03:29,471483.0,0.0,0.0
14:03:29,471361.0,0.0,0.0
14:03:29,471469.0,0.0,0.0
14:03:29,471406.0,0.0,0.0
14:03:29,471406.0,0.0,0.0
14:03:29,471485.0,0.0,0.0
14:03:29,471348.0,0.0,0.0
14:03:29,471429.0,0.0,0.0
14:03:29,471354.0,0.0,0.0
14:03:29,471290.0,0.0,0.0
14:03:29,471333.0,0.0,0.0
14:03:29,471193.0,0.0,0.0
14:03:29,471282.0,0.0,0.0
14:03:29,471207.0,0.0,0.0
14:03:29,471124.0,0.0,0.0
14:03:29,471134.0,0.0,0.0
14:03:29,470938.0,0.0,0.0
14:03:29,470961.0,0.0,0.0
14:03:29,470798.0,0.0,0.0
14:03:29,470685.0,0.0,0.0
14:03:29,470707.0,0.0,0.0
14:03:29,470516.0,0.0,0.0
14:03:29,470614.0,0.0,0.0
14:03:29,470582.0,0.0,0.0
14:03:29,470491.0,0.0,0.0
14:03:29,470500.0,0.0,0.0
14:03:29,470338.0,0.0,0.0
14:03:29,470423.0,0.0,0.0
14:03:29,470327.0,0.0,0.0
14:03:29,470193.0,0.0,0.0
14:03:29,470201.0,0.0,0.0
14:03:29,470012.0,0.0,0.0
14:03:29,470070.0,0.0,0.0
14:03:29,470015.0,0.0,0.0
14:03:29,469988.0,0.0,0.0
14:03:29,470008.0,0.0,0.0
14:03:29,469711.0,0.0,0.0
14:03:29,469704.0,0.0,0.0
14:03:29,469645.0,0.0,0.0
14:03:29,469579.0,0.0,0.0
14:03:29,469652.0,0.0,0.0
14:03:29,469457.0,0.0,0.0
14:03:29,469440.0,0.0,0.0
14:03:29,469334.0,0.0,0.0
14:03:29,469190.0,0.0,0.0
14:03:29,469218.0,0.0,0.0
14:03:29,469058.0,0.0,0.0
14:03:29,469076.0,0.0,0.0
14:03:29,469019.0,0.0,0.0
14:03:29,468939.0,0.0,0.0
14:03:29,469000.0,0.0,0.0
14:03:29,468797.0,0.0,0.0
14:03:29,468814.0,0.0,0.0
14:03:29,468732.0,0.0,0.0
14:03:29,468604.0,0.0,0.0
14:03:29,468708.0,0.0,0.0
14:03:29,468524.0,0.0,0.0
14:03:29,468608.0,0.0,0.0
14:03:29,468545.0,0.0,0.0
14:03:29,468448.0,0.0,0.0
14:03:29,468499.0,0.0,0.0
14:03:29,468506.0,0.0,0.0
14:03:29,468688.0,0.0,0.0
14:03:29,468653.0,0.0,0.0
14:03:29,468623.0,0.0,0.0
14:03:29,468714.0,0.0,0.0
14:03:29,468553.0,0.0,0.0
14:03:29,468649.0,0.0,0.0
14:03:29,468583.0,0.0,0.0
14:03:29,468455.0,0.0,0.0
14:03:29,468531.0,0.0,0.0
14:03:29,468381.0,0.0,0.0
14:03:29,468454.0,0.0,0.0
14:03:29,468418.0,0.0,0.0
14:03:29,468334.0,0.0,0.0
14:03:29,468434.0,0.0,0.0
14:03:29,468303.0,0.0,0.0
14:03:29,468357.0,0.0,0.0
14:03:29,468348.0,0.0,0.0
14:03:29,468179.0,0.0,0.0
14:03:29,468194.0,0.0,0.0
14:03:29,468069.0,0.0,0.0
14:03:29,468141.0,0.0,0.0
14:03:29,468033.0,0.0,0.0
14:03:29,467859.0,0.0,0.0
14:03:29,467808.0,0.0,0.0
14:03:29,467537.0,0.0,0.0
14:03:30,467535.0,0.0,0.0
14:03:30,467447.0,0.0,0.0
14:03:30,467338.0,0.0,0.0
14:03:30,467453.0,0.0,0.0
14:03:30,467278.0,0.0,0.0
14:03:30,467314.0,0.0,0.0
14:03:30,467224.0,0.0,0.0
14:03:30,467128.0,0.0,0.0
14:03:30,467310.0,0.0,0.0
14:03:30,467243.0,0.0,0.0
14:03:30,467298.0,0.0,0.0
14:03:30,467294.0,0.0,0.0
14:03:30,467202.0,0.0,0.0
14:03:30,467319.0,0.0,0.0
14:03:30,467232.0,0.0,0.0
14:03:30,467404.0,0.0,0.0
14:03:30,467408.0,0.0,0.0
14:03:30,467244.0,0.0,0.0
14:03:30,467237.0,0.0,0.0
14:03:30,467065.0,0.0,0.0
14:03:30,467090.0,0.0,0.0
14:03:30,467120.0,0.0,0.0
14:03:30,467014.0,0.0,0.0
14:03:30,467121.0,0.0,0.0
14:03:30,467017.0,0.0,0.0
14:03:30,467063.0,0.0,0.0
14:03:30,467026.0,0.0,0.0
14:03:30,466923.0,0.0,0.0
14:03:30,467014.0,0.0,0.0
14:03:30,466909.0,0.0,0.0
14:03:30,466954.0,0.0,0.0
14:03:30,466903.0,0.0,0.0
14:03:30,466829.0,0.0,0.0
14:03:30,466947.0,0.0,0.0
14:03:30,466804.0,0.0,0.0
14:03:30,466918.0,0.0,0.0
14:03:30,466943.0,0.0,0.0
14:03:30,466852.0,0.0,0.0
14:03:30,466984.0,0.0,0.0
14:03:30,466818.0,0.0,0.0
14:03:30,466896.0,0.0,0.0
14:03:30,466920.0,0.0,0.0
14:03:30,466843.0,0.0,0.0
14:03:30,466970.0,0.0,0.0
14:03:30,466838.0,0.0,0.0
14:03:30,466879.0,0.0,0.0
14:03:30,466893.0,0.0,0.0
14:03:30,466814.0,0.0,0.0
14:03:30,466981.0,0.0,0.0
14:03:30,466850.0,0.0,0.0
14:03:30,466920.0,0.0,0.0
14:03:30,466930.0,0.0,0.0
14:03:30,466831.0,0.0,0.0
14:03:30,466940.0,0.0,0.0
14:03:30,466827.0,0.0,0.0
14:03:30,466906.0,0.0,0.0
14:03:30,466948.0,0.0,0.0
14:03:30,466843.0,0.0,0.0
14:03:30,466939.0,0.0,0.0
14:03:30,466851.0,0.0,0.0
14:03:30,466920.0,0.0,0.0
14:03:30,466903.0,0.0,0.0
14:03:30,466833.0,0.0,0.0
14:03:30,466959.0,0.0,0.0
14:03:30,466844.0,0.0,0.0
14:03:30,466886.0,0.0,0.0
14:03:30,466834.0,0.0,0.0
14:03:30,466723.0,0.0,0.0
14:03:30,466879.0,0.0,0.0
14:03:30,466818.0,0.0,0.0
14:03:30,466908.0,0.0,0.0
14:03:30,466893.0,0.0,0.0
14:03:30,466809.0,0.0,0.0
14:03:30,466922.0,0.0,0.0
14:03:30,466816.0,0.0,0.0
14:03:30,466910.0,0.0,0.0
14:03:30,466944.0,0.0,0.0
14:03:30,466851.0,0.0,0.0
14:03:30,467016.0,0.0,0.0
14:03:30,466891.0,0.0,0.0
14:03:30,466940.0,0.0,0.0
14:03:30,466949.0,0.0,0.0
14:03:30,466893.0,0.0,0.0
14:03:30,467148.0,0.0,0.0
14:03:30,467129.0,0.0,0.0
14:03:30,467264.0,0.0,0.0
14:03:30,467181.0,0.0,0.0
14:03:30,467041.0,0.0,0.0
14:03:30,467165.0,0.0,0.0
14:03:30,467083.0,0.0,0.0
14:03:30,467189.0,0.0,0.0
14:03:30,467235.0,0.0,0.0
14:03:30,467188.0,0.0,0.0
14:03:30,467324.0,0.0,0.0
14:03:30,467203.0,0.0,0.0
14:03:30,467264.0,0.0,0.0
14:03:30,467316.0,0.0,0.0
14:03:30,467244.0,0.0,0.0
14:03:30,467389.0,0.0,0.0
14:03:30,467272.0,0.0,0.0
14:03:30,467321.0,0.0,0.0
14:03:30,467343.0,0.0,0.0
14:03:30,467258.0,0.0,0.0
14:03:30,467423.0,0.0,0.0
14:03:30,467352.0,0.0,0.0
14:03:30,467434.0,0.0,0.0
14:03:30,467488.0,0.0,0.0
14:03:30,467416.0,0.0,0.0
14:03:30,467562.0,0.0,0.0
14:03:30,467516.0,0.0,0.0
14:03:30,467656.0,0.0,0.0
14:03:30,467718.0,0.0,0.0
14:03:30,467685.0,0.0,0.0
14:03:30,467771.0,0.0,0.0
14:03:30,467671.0,0.0,0.0
14:03:30,467782.0,0.0,0.0
14:03:30,467824.0,0.0,0.0
14:03:30,467794.0,0.0,0.0
14:03:30,467908.0,0.0,0.0
14:03:30,467838.0,0.0,0.0
14:03:30,467921.0,0.0,0.0
14:03:30,467916.0,0.0,0.0
14:03:30,467862.0,0.0,0.0
14:03:30,467989.0,0.0,0.0
14:03:30,467953.0,0.0,0.0
14:03:31,468011.0,0.0,0.0
14:03:31,468025.0,0.0,0.0
14:03:31,467969.0,0.0,0.0
14:03:31,468082.0,0.0,0.0
14:03:31,468014.0,0.0,0.0
14:03:31,468104.0,0.0,0.0
14:03:31,468156.0,0.0,0.0
14:03:31,468098.0,0.0,0.0
14:03:31,468137.0,0.0,0.0
14:03:31,468046.0,0.0,0.0
14:03:31,468106.0,0.0,0.0
14:03:31,468115.0,0.0,0.0
14:03:31,468074.0,0.0,0.0
14:03:31,468204.0,0.0,0.0
14:03:31,468143.0,0.0,0.0
14:03:31,468179.0,0.0,0.0
14:03:31,468226.0,0.0,0.0
14:03:31,468179.0,0.0,0.0
14:03:31,468270.0,0.0,0.0
14:03:31,468225.0,0.0,0.0
14:03:31,468333.0,0.0,0.0
14:03:31,468382.0,0.0,0.0
14:03:31,468326.0,0.0,0.0
14:03:31,468414.0,0.0,0.0
14:03:31,468350.0,0.0,0.0
14:03:31,468422.0,0.0,0.0
14:03:31,468464.0,0.0,0.0
14:03:31,468416.0,0.0,0.0
14:03:31,468568.0,0.0,0.0
14:03:31,468547.0,0.0,0.0
14:03:31,468622.0,0.0,0.0
14:03:31,468605.0,0.0,0.0
14:03:31,468421.0,0.0,0.0
14:03:31,468517.0,0.0,0.0
14:03:31,468453.0,0.0,0.0
14:03:31,468509.0,0.0,0.0
14:03:31,468532.0,0.0,0.0
14:03:31,468464.0,0.0,0.0
14:03:31,468559.0,0.0,0.0
14:03:31,468479.0,0.0,0.0
14:03:31,468529.0,0.0,0.0
14:03:31,468584.0,0.0,0.0
14:03:31,468511.0,0.0,0.0
14:03:31,468597.0,0.0,0.0
14:03:31,468486.0,0.0,0.0
14:03:31,468565.0,0.0,0.0
14:03:31,468608.0,0.0,0.0
14:03:31,468545.0,0.0,0.0
14:03:31,468626.0,0.0,0.0
14:03:31,468536.0,0.0,0.0
14:03:31,468630.0,0.0,0.0
14:03:31,468688.0,0.0,0.0
14:03:31,468607.0,0.0,0.0
14:03:31,468742.0,0.0,0.0
14:03:31,468624.0,0.0,0.0
14:03:31,468699.0,0.0,0.0
14:03:31,468705.0,0.0,0.0
14:03:31,468561.0,0.0,0.0
14:03:31,468686.0,0.0,0.0
14:03:31,468614.0,0.0,0.0
14:03:31,468698.0,0.0,0.0
14:03:31,468746.0,0.0,0.0
14:03:31,468661.0,0.0,0.0
14:03:31,468780.0,0.0,0.0
14:03:31,468646.0,0.0,0.0
14:03:31,468705.0,0.0,0.0
14:03:31,468731.0,0.0,0.0
14:03:31,468679.0,0.0,0.0
14:03:31,468795.0,0.0,0.0
14:03:31,468661.0,0.0,0.0
14:03:31,468679.0,0.0,0.0
14:03:31,468683.0,0.0,0.0
14:03:31,468611.0,0.0,0.0
14:03:31,468734.0,0.0,0.0
14:03:31,468591.0,0.0,0.0
14:03:31,468579.0,0.0,0.0
14:03:31,468582.0,0.0,0.0
14:03:31,468458.0,0.0,0.0
14:03:31,468543.0,0.0,0.0
14:03:31,468403.0,0.0,0.0
14:03:31,468439.0,0.0,0.0
14:03:31,468483.0,0.0,0.0
14:03:31,468390.0,0.0,0.0
14:03:31,468539.0,0.0,0.0
14:03:31,468407.0,0.0,0.0
14:03:31,468442.0,0.0,0.0
14:03:31,468513.0,0.0,0.0
14:03:31,468423.0,0.0,0.0
14:03:31,468543.0,0.0,0.0
14:03:31,468426.0,0.0,0.0
14:03:31,468492.0,0.0,0.0
14:03:31,468488.0,0.0,0.0
14:03:31,468356.0,0.0,0.0
14:03:31,468453.0,0.0,0.0
14:03:31,468332.0,0.0,0.0
14:03:31,468423.0,0.0,0.0
14:03:31,468432.0,0.0,0.0
14:03:31,468294.0,0.0,0.0
14:03:31,468351.0,0.0,0.0
14:03:31,468171.0,0.0,0.0
14:03:31,468284.0,0.0,0.0
14:03:31,468456.0,0.0,0.0
14:03:31,468387.0,0.0,0.0
14:03:31,468480.0,0.0,0.0
14:03:31,468144.0,0.0,0.0
14:03:31,468056.0,0.0,0.0
14:03:31,468131.0,0.0,0.0
14:03:31,468088.0,0.0,0.0
14:03:31,468281.0,0.0,0.0
14:03:31,468240.0,0.0,0.0
14:03:31,468294.0,0.0,0.0
14:03:31,468336.0,0.0,0.0
14:03:31,468203.0,0.0,0.0
14:03:31,468314.0,0.0,0.0
14:03:31,468227.0,0.0,0.0
14:03:31,468258.0,0.0,0.0
14:03:31,468298.0,0.0,0.0
14:03:31,468151.0,0.0,0.0
14:03:31,468178.0,0.0,0.0
14:03:31,468056.0,0.0,0.0
14:03:31,468170.0,0.0,0.0
14:03:31,468240.0,0.0,0.0
14:03:31,468161.0,0.0,0.0
14:03:31,468246.0,0.0,0.0
14:03:31,468131.0,0.0,0.0
14:03:32,468159.0,0.0,0.0
14:03:32,468182.0,0.0,0.0
14:03:32,467992.0,0.0,0.0
14:03:32,468114.0,0.0,0.0
14:03:32,468131.0,0.0,0.0
14:03:32,468174.0,0.0,0.0
14:03:32,468211.0,0.0,0.0
14:03:32,468109.0,0.0,0.0
14:03:32,468194.0,0.0,0.0
14:03:32,468061.0,0.0,0.0
14:03:32,468000.0,0.0,0.0
14:03:32,468024.0,0.0,0.0
14:03:32,467904.0,0.0,0.0
14:03:32,468021.0,0.0,0.0
14:03:32,467904.0,0.0,0.0
14:03:32,467886.0,0.0,0.0
14:03:32,467865.0,0.0,0.0
14:03:32,467734.0,0.0,0.0
14:03:32,467808.0,0.0,0.0
14:03:32,467691.0,0.0,0.0
14:03:32,467700.0,0.0,0.0
14:03:32,467690.0,0.0,0.0
14:03:32,467565.0,0.0,0.0
14:03:32,467672.0,0.0,0.0
14:03:32,467584.0,0.0,0.0
14:03:32,467644.0,0.0,0.0
14:03:32,467672.0,0.0,0.0
14:03:32,467586.0,0.0,0.0
14:03:32,467696.0,0.0,0.0
14:03:32,467562.0,0.0,0.0
14:03:32,467563.0,0.0,0.0
14:03:32,467581.0,0.0,0.0
14:03:32,467482.0,0.0,0.0
14:03:32,467584.0,0.0,0.0
14:03:32,467478.0,0.0,0.0
14:03:32,467499.0,0.0,0.0
14:03:32,467523.0,0.0,0.0
14:03:32,467405.0,0.0,0.0
14:03:32,467556.0,0.0,0.0
14:03:32,467449.0,0.0,0.0
14:03:32,467431.0,0.0,0.0
14:03:32,467551.0,0.0,0.0
14:03:32,467468.0,0.0,0.0
14:03:32,467624.0,0.0,0.0
14:03:32,467554.0,0.0,0.0
14:03:32,467528.0,0.0,0.0
14:03:32,467566.0,0.0,0.0
14:03:32,467453.0,0.0,0.0
14:03:32,467528.0,0.0,0.0
14:03:32,467419.0,0.0,0.0
14:03:32,467425.0,0.0,0.0
14:03:32,467567.0,0.0,0.0
14:03:32,467610.0,0.0,0.0
14:03:32,467873.0,0.0,0.0
14:03:32,467763.0,0.0,0.0
14:03:32,467549.0,0.0,0.0
14:03:32,467499.0,0.0,0.0
14:03:32,467461.0,0.0,0.0
14:03:32,467662.0,0.0,0.0
14:03:32,467629.0,0.0,0.0
14:03:32,467641.0,0.0,0.0
14:03:32,467670.0,0.0,0.0
14:03:32,467568.0,0.0,0.0
14:03:32,467714.0,0.0,0.0
14:03:32,467608.0,0.0,0.0
14:03:32,467674.0,0.0,0.0
14:03:32,467781.0,0.0,0.0
14:03:32,467729.0,0.0,0.0
14:03:32,467793.0,0.0,0.0
14:03:32,467684.0,0.0,0.0
14:03:32,467727.0,0.0,0.0
14:03:32,467770.0,0.0,0.0
14:03:32,467735.0,0.0,0.0
14:03:32,467845.0,0.0,0.0
14:03:32,467667.0,0.0,0.0
14:03:32,467691.0,0.0,0.0
14:03:32,467733.0,0.0,0.0
14:03:32,467709.0,0.0,0.0
14:03:32,467841.0,0.0,0.0
14:03:32,467708.0,0.0,0.0
14:03:32,467719.0,0.0,0.0
14:03:32,467811.0,0.0,0.0
14:03:32,467766.0,0.0,0.0
14:03:32,467868.0,0.0,0.0
14:03:32,467726.0,0.0,0.0
14:03:32,467833.0,0.0,0.0
14:03:32,467926.0,0.0,0.0
14:03:32,467881.0,0.0,0.0
14:03:32,467996.0,0.0,0.0
14:03:32,467959.0,0.0,0.0
14:03:32,468038.0,0.0,0.0
14:03:32,468042.0,0.0,0.0
14:03:32,468004.0,0.0,0.0
14:03:32,468263.0,0.0,0.0
14:03:32,468268.0,0.0,0.0
14:03:32,468370.0,0.0,0.0
14:03:32,468398.0,0.0,0.0
14:03:32,468374.0,0.0,0.0
14:03:32,468553.0,0.0,0.0
14:03:32,468546.0,0.0,0.0
14:03:32,468633.0,0.0,0.0
14:03:32,468659.0,0.0,0.0
14:03:32,468636.0,0.0,0.0
14:03:32,468744.0,0.0,0.0
14:03:32,468600.0,0.0,0.0
14:03:32,468653.0,0.0,0.0
14:03:32,468671.0,0.0,0.0
14:03:32,468639.0,0.0,0.0
14:03:32,468681.0,0.0,0.0
14:03:32,468520.0,0.0,0.0
14:03:32,468540.0,0.0,0.0
14:03:32,468528.0,0.0,0.0
14:03:32,468429.0,0.0,0.0
14:03:32,468505.0,0.0,0.0
14:03:32,468348.0,0.0,0.0
14:03:32,468369.0,0.0,0.0
14:03:32,468281.0,0.0,0.0
14:03:32,468167.0,0.0,0.0
14:03:32,468229.0,0.0,0.0
14:03:32,468023.0,0.0,0.0
14:03:32,468026.0,0.0,0.0
14:03:32,467980.0,0.0,0.0
14:03:32,467831.0,0.0,0.0
14:03:32,467833.0,0.0,0.0
14:03:32,467622.0,0.0,0.0
14:03:33,467614.0,0.0,0.0
14:03:33,467664.0,0.0,0.0
14:03:33,467676.0,0.0,0.0
14:03:33,467896.0,0.0,0.0
14:03:33,467659.0,0.0,0.0
14:03:33,467367.0,0.0,0.0
14:03:33,467158.0,0.0,0.0
14:03:33,467024.0,0.0,0.0
14:03:33,466954.0,0.0,0.0
14:03:33,466844.0,0.0,0.0
14:03:33,467041.0,0.0,0.0
14:03:33,466977.0,0.0,0.0
14:03:33,466901.0,0.0,0.0
14:03:33,467036.0,0.0,0.0
14:03:33,466910.0,0.0,0.0
14:03:33,466864.0,0.0,0.0
14:03:33,466836.0,0.0,0.0
14:03:33,466728.0,0.0,0.0
14:03:33,466709.0,0.0,0.0
14:03:33,466483.0,0.0,0.0
14:03:33,466424.0,0.0,0.0
14:03:33,466441.0,0.0,0.0
14:03:33,466383.0,0.0,0.0
14:03:33,466527.0,0.0,0.0
14:03:33,466378.0,0.0,0.0
14:03:33,466356.0,0.0,0.0
14:03:33,466370.0,0.0,0.0
14:03:33,466263.0,0.0,0.0
14:03:33,466385.0,0.0,0.0
14:03:33,466208.0,0.0,0.0
14:03:33,466336.0,0.0,0.0
14:03:33,466494.0,0.0,0.0
14:03:33,466409.0,0.0,0.0
14:03:33,466459.0,0.0,0.0
14:03:33,466281.0,0.0,0.0
14:03:33,466400.0,0.0,0.0
14:03:33,466440.0,0.0,0.0
14:03:33,466333.0,0.0,0.0
14:03:33,466518.0,0.0,0.0
14:03:33,466456.0,0.0,0.0
14:03:33,466499.0,0.0,0.0
14:03:33,466507.0,0.0,0.0
14:03:33,466402.0,0.0,0.0
14:03:33,466541.0,0.0,0.0
14:03:33,466428.0,0.0,0.0
14:03:33,466508.0,0.0,0.0
14:03:33,466549.0,0.0,0.0
14:03:33,466451.0,0.0,0.0
14:03:33,466616.0,0.0,0.0
14:03:33,466559.0,0.0,0.0
14:03:33,466596.0,0.0,0.0
14:03:33,466671.0,0.0,0.0
14:03:33,466528.0,0.0,0.0
14:03:33,466672.0,0.0,0.0
14:03:33,466545.0,0.0,0.0
14:03:33,466556.0,0.0,0.0
14:03:33,466633.0,0.0,0.0
14:03:33,466533.0,0.0,0.0
14:03:33,466696.0,0.0,0.0
14:03:33,466603.0,0.0,0.0
14:03:33,466616.0,0.0,0.0
14:03:33,466668.0,0.0,0.0
14:03:33,466601.0,0.0,0.0
14:03:33,466733.0,0.0,0.0
14:03:33,466618.0,0.0,0.0
14:03:33,466644.0,0.0,0.0
14:03:33,466671.0,0.0,0.0
14:03:33,466528.0,0.0,0.0
14:03:33,466669.0,0.0,0.0
14:03:33,466569.0,0.0,0.0
14:03:33,466581.0,0.0,0.0
14:03:33,466606.0,0.0,0.0
14:03:33,466489.0,0.0,0.0
14:03:33,466597.0,0.0,0.0
14:03:33,466444.0,0.0,0.0
14:03:33,466451.0,0.0,0.0
14:03:33,466566.0,0.0,0.0
14:03:33,466644.0,0.0,0.0
14:03:33,466926.0,0.0,0.0
14:03:33,466681.0,0.0,0.0
14:03:33,466437.0,0.0,0.0
14:03:33,466318.0,0.0,0.0
14:03:33,466157.0,0.0,0.0
14:03:33,466283.0,0.0,0.0
14:03:33,466239.0,0.0,0.0
14:03:33,466289.0,0.0,0.0
14:03:33,466343.0,0.0,0.0
14:03:33,466238.0,0.0,0.0
14:03:33,466361.0,0.0,0.0
14:03:33,466306.0,0.0,0.0
14:03:33,466356.0,0.0,0.0
14:03:33,466388.0,0.0,0.0
14:03:33,466274.0,0.0,0.0
14:03:33,466356.0,0.0,0.0
14:03:33,466196.0,0.0,0.0
14:03:33,466178.0,0.0,0.0
14:03:33,466164.0,0.0,0.0
14:03:33,466034.0,0.0,0.0
14:03:33,466106.0,0.0,0.0
14:03:33,465983.0,0.0,0.0
14:03:33,465963.0,0.0,0.0
14:03:33,465989.0,0.0,0.0
14:03:33,465890.0,0.0,0.0
14:03:33,465956.0,0.0,0.0
14:03:33,465881.0,0.0,0.0
14:03:33,465903.0,0.0,0.0
14:03:33,465950.0,0.0,0.0
14:03:33,465843.0,0.0,0.0
14:03:33,465933.0,0.0,0.0
14:03:33,465901.0,0.0,0.0
14:03:33,465872.0,0.0,0.0
14:03:33,465991.0,0.0,0.0
14:03:33,465926.0,0.0,0.0
14:03:33,466064.0,0.0,0.0
14:03:33,466107.0,0.0,0.0
14:03:33,466040.0,0.0,0.0
14:03:33,466077.0,0.0,0.0
14:03:33,466023.0,0.0,0.0
14:03:33,466146.0,0.0,0.0
14:03:33,466091.0,0.0,0.0
14:03:33,466083.0,0.0,0.0
14:03:33,466182.0,0.0,0.0
14:03:33,466073.0,0.0,0.0
14:03:33,466214.0,0.0,0.0
14:03:33,466213.0,0.0,0.0
14:03:33,466292.0,0.0,0.0
14:03:34,466349.0,0.0,0.0
14:03:34,466209.0,0.0,0.0
14:03:34,466361.0,0.0,0.0
14:03:34,466296.0,0.0,0.0
14:03:34,466236.0,0.0,0.0
14:03:34,466240.0,0.0,0.0
14:03:34,466086.0,0.0,0.0
14:03:34,466236.0,0.0,0.0
14:03:34,466173.0,0.0,0.0
14:03:34,466143.0,0.0,0.0
14:03:34,466177.0,0.0,0.0
14:03:34,466049.0,0.0,0.0
14:03:34,466141.0,0.0,0.0
14:03:34,466128.0,0.0,0.0
14:03:34,466201.0,0.0,0.0
14:03:34,466266.0,0.0,0.0
14:03:34,466094.0,0.0,0.0
14:03:34,466196.0,0.0,0.0
14:03:34,466138.0,0.0,0.0
14:03:34,466167.0,0.0,0.0
14:03:34,466241.0,0.0,0.0
14:03:34,466088.0,0.0,0.0
14:03:34,466169.0,0.0,0.0
14:03:34,466049.0,0.0,0.0
14:03:34,466101.0,0.0,0.0
14:03:34,466339.0,0.0,0.0
14:03:34,466438.0,0.0,0.0
14:03:34,466459.0,0.0,0.0
14:03:34,466206.0,0.0,0.0
14:03:34,466155.0,0.0,0.0
14:03:34,466268.0,0.0,0.0
14:03:34,466154.0,0.0,0.0
14:03:34,466274.0,0.0,0.0
14:03:34,466228.0,0.0,0.0
14:03:34,466222.0,0.0,0.0
14:03:34,466296.0,0.0,0.0
14:03:34,466186.0,0.0,0.0
14:03:34,466291.0,0.0,0.0
14:03:34,466185.0,0.0,0.0
14:03:34,466183.0,0.0,0.0
14:03:34,466264.0,0.0,0.0
14:03:34,466089.0,0.0,0.0
14:03:34,466163.0,0.0,0.0
14:03:34,466086.0,0.0,0.0
14:03:34,466138.0,0.0,0.0
14:03:34,466280.0,0.0,0.0
14:03:34,466239.0,0.0,0.0
14:03:34,466399.0,0.0,0.0
14:03:34,466385.0,0.0,0.0
14:03:34,466410.0,0.0,0.0
14:03:34,466501.0,0.0,0.0
14:03:34,466366.0,0.0,0.0
14:03:34,466477.0,0.0,0.0
14:03:34,466438.0,0.0,0.0
14:03:34,466451.0,0.0,0.0
14:03:34,466541.0,0.0,0.0
14:03:34,466443.0,0.0,0.0
14:03:34,466611.0,0.0,0.0
14:03:34,466543.0,0.0,0.0
14:03:34,466504.0,0.0,0.0
14:03:34,466606.0,0.0,0.0
14:03:34,466447.0,0.0,0.0
14:03:34,466553.0,0.0,0.0
14:03:34,466432.0,0.0,0.0
14:03:34,466394.0,0.0,0.0
14:03:34,466520.0,0.0,0.0
14:03:34,466468.0,0.0,0.0
14:03:34,466685.0,0.0,0.0
14:03:34,466649.0,0.0,0.0
14:03:34,466674.0,0.0,0.0
14:03:34,466773.0,0.0,0.0
14:03:34,466655.0,0.0,0.0
14:03:34,466763.0,0.0,0.0
14:03:34,466861.0,0.0,0.0
14:03:34,466931.0,0.0,0.0
14:03:34,467045.0,0.0,0.0
14:03:34,466916.0,0.0,0.0
14:03:34,467061.0,0.0,0.0
14:03:34,467062.0,0.0,0.0
14:03:34,466883.0,0.0,0.0
14:03:34,466918.0,0.0,0.0
14:03:34,466823.0,0.0,0.0
14:03:34,466971.0,0.0,0.0
14:03:34,466938.0,0.0,0.0
14:03:34,466822.0,0.0,0.0
14:03:34,466957.0,0.0,0.0
14:03:34,466867.0,0.0,0.0
14:03:34,466995.0,0.0,0.0
14:03:34,466928.0,0.0,0.0
14:03:34,466904.0,0.0,0.0
14:03:34,467003.0,0.0,0.0
14:03:34,467078.0,0.0,0.0
14:03:34,467245.0,0.0,0.0
14:03:34,467043.0,0.0,0.0
14:03:34,466997.0,0.0,0.0
14:03:34,467045.0,0.0,0.0
14:03:34,467144.0,0.0,0.0
14:03:34,467376.0,0.0,0.0
14:03:34,467383.0,0.0,0.0
14:03:34,467243.0,0.0,0.0
14:03:34,467128.0,0.0,0.0
14:03:34,466942.0,0.0,0.0
14:03:34,467081.0,0.0,0.0
14:03:34,467088.0,0.0,0.0
14:03:34,467124.0,0.0,0.0
14:03:34,467225.0,0.0,0.0
14:03:34,467076.0,0.0,0.0
14:03:34,467230.0,0.0,0.0
14:03:34,467148.0,0.0,0.0
14:03:34,467103.0,0.0,0.0
14:03:34,467179.0,0.0,0.0
14:03:34,467036.0,0.0,0.0
14:03:34,467165.0,0.0,0.0
14:03:34,467129.0,0.0,0.0
14:03:34,467180.0,0.0,0.0
14:03:34,467284.0,0.0,0.0
14:03:34,467202.0,0.0,0.0
14:03:34,467342.0,0.0,0.0
14:03:34,467328.0,0.0,0.0
14:03:34,467322.0,0.0,0.0
14:03:34,467383.0,0.0,0.0
14:03:34,467219.0,0.0,0.0
14:03:34,467324.0,0.0,0.0
14:03:34,467288.0,0.0,0.0
14:03:34,467259.0,0.0,0.0
14:03:35,467332.0,0.0,0.0
14:03:35,467208.0,0.0,0.0
14:03:35,467328.0,0.0,0.0
14:03:35,467327.0,0.0,0.0
14:03:35,467341.0,0.0,0.0
14:03:35,467433.0,0.0,0.0
14:03:35,467338.0,0.0,0.0
14:03:35,467477.0,0.0,0.0
14:03:35,467436.0,0.0,0.0
14:03:35,467418.0,0.0,0.0
14:03:35,467591.0,0.0,0.0
14:03:35,467488.0,0.0,0.0
14:03:35,467578.0,0.0,0.0
14:03:35,467458.0,0.0,0.0
14:03:35,467429.0,0.0,0.0
14:03:35,467568.0,0.0,0.0
14:03:35,467503.0,0.0,0.0
14:03:35,467563.0,0.0,0.0
14:03:35,467549.0,0.0,0.0
14:03:35,467544.0,0.0,0.0
14:03:35,467663.0,0.0,0.0
14:03:35,467541.0,0.0,0.0
14:03:35,467650.0,0.0,0.0
14:03:35,467616.0,0.0,0.0
14:03:35,467578.0,0.0,0.0
14:03:35,467717.0,0.0,0.0
14:03:35,467611.0,0.0,0.0
14:03:35,467693.0,0.0,0.0
14:03:35,467660.0,0.0,0.0
14:03:35,467618.0,0.0,0.0
14:03:35,467753.0,0.0,0.0
14:03:35,467686.0,0.0,0.0
14:03:35,467832.0,0.0,0.0
14:03:35,467809.0,0.0,0.0
14:03:35,467781.0,0.0,0.0
14:03:35,467843.0,0.0,0.0
14:03:35,467699.0,0.0,0.0
14:03:35,467832.0,0.0,0.0
14:03:35,467826.0,0.0,0.0
14:03:35,467814.0,0.0,0.0
14:03:35,467898.0,0.0,0.0
14:03:35,467757.0,0.0,0.0
14:03:35,467953.0,0.0,0.0
14:03:35,468019.0,0.0,0.0
14:03:35,468006.0,0.0,0.0
14:03:35,468064.0,0.0,0.0
14:03:35,467816.0,0.0,0.0
14:03:35,467849.0,0.0,0.0
14:03:35,467836.0,0.0,0.0
14:03:35,467820.0,0.0,0.0
14:03:35,467962.0,0.0,0.0
14:03:35,467857.0,0.0,0.0
14:03:35,467987.0,0.0,0.0
14:03:35,467962.0,0.0,0.0
14:03:35,467946.0,0.0,0.0
14:03:35,468068.0,0.0,0.0
14:03:35,467945.0,0.0,0.0
14:03:35,468038.0,0.0,0.0
14:03:35,468026.0,0.0,0.0
14:03:35,468036.0,0.0,0.0
14:03:35,468161.0,0.0,0.0
14:03:35,468001.0,0.0,0.0
14:03:35,468078.0,0.0,0.0
14:03:35,468093.0,0.0,0.0
14:03:35,468068.0,0.0,0.0
14:03:35,468190.0,0.0,0.0
14:03:35,468088.0,0.0,0.0
14:03:35,468191.0,0.0,0.0
14:03:35,468156.0,0.0,0.0
14:03:35,468152.0,0.0,0.0
14:03:35,468297.0,0.0,0.0
14:03:35,468176.0,0.0,0.0
14:03:35,468285.0,0.0,0.0
14:03:35,468326.0,0.0,0.0
14:03:35,468348.0,0.0,0.0
14:03:35,468460.0,0.0,0.0
14:03:35,468350.0,0.0,0.0
14:03:35,468436.0,0.0,0.0
14:03:35,468447.0,0.0,0.0
14:03:35,468463.0,0.0,0.0
14:03:35,468604.0,0.0,0.0
14:03:35,468447.0,0.0,0.0
14:03:35,468533.0,0.0,0.0
14:03:35,468511.0,0.0,0.0
14:03:35,468464.0,0.0,0.0
14:03:35,468573.0,0.0,0.0
14:03:35,468453.0,0.0,0.0
14:03:35,468549.0,0.0,0.0
14:03:35,468558.0,0.0,0.0
14:03:35,468519.0,0.0,0.0
14:03:35,468609.0,0.0,0.0
14:03:35,468505.0,0.0,0.0
14:03:35,468627.0,0.0,0.0
14:03:35,468651.0,0.0,0.0
14:03:35,468655.0,0.0,0.0
14:03:35,468742.0,0.0,0.0
14:03:35,468598.0,0.0,0.0
14:03:35,468678.0,0.0,0.0
14:03:35,468645.0,0.0,0.0
14:03:35,468651.0,0.0,0.0
14:03:35,468796.0,0.0,0.0
14:03:35,468716.0,0.0,0.0
14:03:35,468826.0,0.0,0.0
14:03:35,468804.0,0.0,0.0
14:03:35,468805.0,0.0,0.0
14:03:35,468919.0,0.0,0.0
14:03:35,468833.0,0.0,0.0
14:03:35,468934.0,0.0,0.0
14:03:35,468936.0,0.0,0.0
14:03:35,468924.0,0.0,0.0
14:03:35,469011.0,0.0,0.0
14:03:35,468899.0,0.0,0.0
14:03:35,469000.0,0.0,0.0
14:03:35,469040.0,0.0,0.0
14:03:35,469166.0,0.0,0.0
14:03:35,469344.0,0.0,0.0
14:03:35,469246.0,0.0,0.0
14:03:35,469223.0,0.0,0.0
14:03:35,469063.0,0.0,0.0
14:03:35,469065.0,0.0,0.0
14:03:35,469174.0,0.0,0.0
14:03:35,469125.0,0.0,0.0
14:03:35,469225.0,0.0,0.0
14:03:35,469145.0,0.0,0.0
14:03:35,469119.0,0.0,0.0
14:03:36,469206.0,0.0,0.0
14:03:36,469119.0,0.0,0.0
14:03:36,469231.0,0.0,0.0
14:03:36,469183.0,0.0,0.0
14:03:36,469177.0,0.0,0.0
14:03:36,469258.0,0.0,0.0
14:03:36,469133.0,0.0,0.0
14:03:36,469221.0,0.0,0.0
14:03:36,469161.0,0.0,0.0
14:03:36,469176.0,0.0,0.0
14:03:36,469254.0,0.0,0.0
14:03:36,469109.0,0.0,0.0
14:03:36,469191.0,0.0,0.0
14:03:36,469134.0,0.0,0.0
14:03:36,469145.0,0.0,0.0
14:03:36,469263.0,0.0,0.0
14:03:36,469154.0,0.0,0.0
14:03:36,469256.0,0.0,0.0
14:03:36,469212.0,0.0,0.0
14:03:36,469195.0,0.0,0.0
14:03:36,469284.0,0.0,0.0
14:03:36,469166.0,0.0,0.0
14:03:36,469341.0,0.0,0.0
14:03:36,469335.0,0.0,0.0
14:03:36,469310.0,0.0,0.0
14:03:36,469399.0,0.0,0.0
14:03:36,469286.0,0.0,0.0
14:03:36,469415.0,0.0,0.0
14:03:36,469363.0,0.0,0.0
14:03:36,469342.0,0.0,0.0
14:03:36,469504.0,0.0,0.0
14:03:36,469441.0,0.0,0.0
14:03:36,469542.0,0.0,0.0
14:03:36,469516.0,0.0,0.0
14:03:36,469551.0,0.0,0.0
14:03:36,469674.0,0.0,0.0
14:03:36,469576.0,0.0,0.0
14:03:36,469710.0,0.0,0.0
14:03:36,469702.0,0.0,0.0
14:03:36,469695.0,0.0,0.0
14:03:36,469771.0,0.0,0.0
14:03:36,469674.0,0.0,0.0
14:03:36,469827.0,0.0,0.0
14:03:36,469788.0,0.0,0.0
14:03:36,469776.0,0.0,0.0
14:03:36,469864.0,0.0,0.0
14:03:36,469712.0,0.0,0.0
14:03:36,469841.0,0.0,0.0
14:03:36,469838.0,0.0,0.0
14:03:36,469841.0,0.0,0.0
14:03:36,470013.0,0.0,0.0
14:03:36,469888.0,0.0,0.0
14:03:36,469998.0,0.0,0.0
14:03:36,469934.0,0.0,0.0
14:03:36,469876.0,0.0,0.0
14:03:36,470015.0,0.0,0.0
14:03:36,469842.0,0.0,0.0
14:03:36,469899.0,0.0,0.0
14:03:36,469955.0,0.0,0.0
14:03:36,469945.0,0.0,0.0
14:03:36,470160.0,0.0,0.0
14:03:36,470124.0,0.0,0.0
14:03:36,470247.0,0.0,0.0
14:03:36,470088.0,0.0,0.0
14:03:36,469924.0,0.0,0.0
14:03:36,470044.0,0.0,0.0
14:03:36,469932.0,0.0,0.0
14:03:36,470038.0,0.0,0.0
14:03:36,469936.0,0.0,0.0
14:03:36,469867.0,0.0,0.0
14:03:36,469941.0,0.0,0.0
14:03:36,469749.0,0.0,0.0
14:03:36,469837.0,0.0,0.0
14:03:36,469793.0,0.0,0.0
14:03:36,469719.0,0.0,0.0
14:03:36,469786.0,0.0,0.0
14:03:36,469628.0,0.0,0.0
14:03:36,469692.0,0.0,0.0
14:03:36,469645.0,0.0,0.0
14:03:36,469579.0,0.0,0.0
14:03:36,469666.0,0.0,0.0
14:03:36,469529.0,0.0,0.0
14:03:36,469582.0,0.0,0.0
14:03:36,469590.0,0.0,0.0
14:03:36,469579.0,0.0,0.0
14:03:36,469643.0,0.0,0.0
14:03:36,469490.0,0.0,0.0
14:03:36,469604.0,0.0,0.0
14:03:36,469566.0,0.0,0.0
14:03:36,469490.0,0.0,0.0
14:03:36,469591.0,0.0,0.0
14:03:36,469482.0,0.0,0.0
14:03:36,469581.0,0.0,0.0
14:03:36,469553.0,0.0,0.0
14:03:36,469443.0,0.0,0.0
14:03:36,469541.0,0.0,0.0
14:03:36,469334.0,0.0,0.0
14:03:36,469333.0,0.0,0.0
14:03:36,469622.0,0.0,0.0
14:03:36,469709.0,0.0,0.0
14:03:36,469884.0,0.0,0.0
14:03:36,469606.0,0.0,0.0
14:03:36,469578.0,0.0,0.0
14:03:36,469517.0,0.0,0.0
14:03:36,469483.0,0.0,0.0
14:03:36,469608.0,0.0,0.0
14:03:36,469512.0,0.0,0.0
14:03:36,469639.0,0.0,0.0
14:03:36,469599.0,0.0,0.0
14:03:36,469552.0,0.0,0.0
14:03:36,469609.0,0.0,0.0
14:03:36,469468.0,0.0,0.0
14:03:36,469565.0,0.0,0.0
